pid,name
45109028694216,其实
75202314492163,王相荣
29678148822005,陈上助
28680411560511,null
28979223103719,刘惠城
99633280707814,茅蕾
78302421840195,王悦
41539973482350,张长虹
69185010251274,null
90635674239539,朱晔
29675233941692,梁逍
32920872372648,刘德群
29711361484551,李小龙
29740277621714,null
70532030068259,王梦婕
37932264129132,周玲
30390308196572,田范江
29660085890241,李洪国
28707021037389,李畅
99838098853973,茅蕾
26641645397993,null
99491957213787,宋国论
29578693305510,陈燕玲
10700737128121,null
29185008605821,宗慧敏
27463942265480,张洪军
34927002712717,null
98064713341797,何乔
29680671071311,王佳
37182111528288,范建震
70361401330277,姜祖功
35740717259130,吴涛
29767077026709,孙陶然
97714630621604,连良桂
83371428914399,彭朋
65501996241959,华勇
31455116189436,周建禄
31533426562392,陈亚妹
32152486316326,颜静刚
91880691351411,null
28757003117259,朱雪松
95064942071341,齐兵
62521894066189,刘洋
73965821984185,null
15948251086620,null
31809418170268,蔡永康
17488102263333,null
23596113225112,包志方
77089510094126,null
28846273052625,徐炜
31688118817191,周洲
32629330453140,候凤新
56109325173187,其他
28680769323998,刘丰
47623060411170,沈锦华
74681531382290,null
52552482076781,null
11764168924115,易泽延
19099781130285,null
30529143980886,null
31019319384823,赖春临
30546163486185,苏同
74101711141323,彭兵
30915248067214,郭广友
23795472614098,孙显青
56679710468326,韩冰冰
18413079375800,null
32374177783078,null
24269100938187,童箭
99734564745849,null
11213876579126,null
51422221969321,null
58738478691398,胡光辉
31296207187726,朱军红
21246202843110,null
31839289591178,李春梅
15847283061830,null
30649431782730,null
32981803923235,黄元元
14388832829422,null
29686849624150,null
29728372204812,矫沙梅
49909532912693,包可为
27478294442414,陈斯泉
11238003653625,null
98752759845159,null
10651053658902,null
10943838741657,王大林
10943866342147,null
73743407761258,滕美华
23903779852291,张玮
85042600661109,null
29975112545207,吴章香
83342497055728,王灏
45789566731507,郭庆
19371431340408,null
19399494306175,null
73632014153411,null
22214620952308,null
13694873543949,黄谷仓
50657488832478,石海
21383691183228,许红
83451426821806,尚建华
28978219263114,刘恋
31639302320030,个人股
30591331720776,由艳丽
97721081821806,杨明章
14347219050518,吴晓东
29109513617517,null
15829299193326,高以成
25469265354210,周丽恩
10079881325820,童毅
55536823492488,杨巧生
26834033000335,席亚男
29509636086151,null
52877169012415,杨先艳
99163777992193,邓世鸿
97895313952639,null
16757021177899,宋国论
26798065818836,郑培初
10141884871173,姬鸿斌
11398255175672,null
37900982392977,null
21125164052316,曹文英
99734912549182,null
13750389104058,蔡允中
32371248407814,null
97126024151066,翟东生
28398994856222,null
26726677953104,章勇
26838582444257,刘小强
31904275134199,韩高伟
31757787822876,殷大成
20768212312326,王家荣
57838429198713,向晓飞
33207893369994,刘启胜
26917161828310,谢志明
32386234563025,王黎
11134603701874,王杨
76952064658189,黄东平
35306832260503,唐天富
11342016440410,王天棋
99067547623694,null
83402478545576,null
10121845768937,null
18927942103811,曾呈呈
28919293225199,肖良贵
26275363416885,陈春梅
15696127783475,萧蓝
31339707420212,高柏寒
31899252839532,陶芸芸
29012721449786,null
22131802771229,null
10819814934607,胡茗琦
30187283478922,李迎春
11166894367387,李小勇
98017920305512,熊华锋
11701174956271,陈森益
44159589441472,null
66941031040119,赖益辉
10841669117766,黄缄明
10928272078610,冉淞先
22688443273960,null
88086830098143,null
23803989909420,冷德法
95832357349153,刘文献
32474249372815,丁卓
32601333066312,null
98901877915945,null
11568276779683,马双燕
19695003840301,陈晖
28868401559422,null
32926485184626,赖霖枫
31702206625743,江凯
29191331048028,null
52326295452117,null
22138125860290,郭晓强
20223821836032,李洋
97299666691992,邓丹
97839515151683,李征石
10677638173738,null
26483511630047,潘高峰
10798471000706,郭力
11697791697721,周长缨
32235592936510,刘张健
95168984376167,周海峰
22628222720362,林学军
30042379234493,null
66351563314158,null
23202392252659,周美珍
63963191457898,null
82852513518651,许金才
27099001395138,null
13777448227987,孙雷
74911925106593,吴辉
97852391956267,柴进
29665846683373,信意安
34109788632832,袁奇立
84921518791237,王浩宇
75574726332836,程宏亮
61257217131324,洪浩然
31906657584189,null
99478319772685,王利平
30679242650630,柴咏梅
41151459986112,null
30072185525016,李林
30468273610023,null
94219253917642,null
32526981212918,苗玉水
30377750415644,林宜利
42936137441196,沈勇坚
98596377065188,黄伊林
82096021245153,闫振利
29672760103166,刘江
72451787178260,林仪清
33829248840768,null
34667062641058,杨贻宏
10472719291161,钱俊冬
66442060225171,常立
25897556607308,陈麒麟
23484083227719,张静秋
22206073254111,null
24276707963151,向守军
28747592284719,流通股
13781588122545,白晓娟
31283360557536,许帆
31609682820510,王谦
28791853871273,梁家恩
99724500848864,李开杨
63686304301369,张建培
29576155080124,景新海
40811022603324,null
50051110196248,null
11261989339218,毛保峰
99734564145539,null
29111021788869,null
19146842175105,曾小林
10026743714613,null
23222291168626,null
10612901991936,齐精文
31185076048935,项舒心
67043414596134,郑文平
30445981519411,null
15713190144228,邓少军
29791086699140,綦琳
83915618107273,纪伟国
85513826129225,魏宁
29072280011134,null
93837890885876,于锋
29913309387524,李明
32739301708715,杨明秋
14315032932719,null
59051274518163,魏绪
19410151891629,何雪松
98414728553290,李晓林
11227473338392,苏信
85845529106984,曾德方
20993516887311,钟耕收
23863256058435,陈开晓
32210751549161,邵水仁
26684866538734,杨一萌
21838883133349,杜瑞芹
10791401254523,null
13709570864848,null
97118227714544,殷卫国
28892622628621,韦伟胜
30229211673223,陈学艺
62898510757127,陈军
29001692522312,彭以政
97872647370278,null
10186162114782,孙玉民
29149303927127,宋立广
18766201019416,叶伟强
11882881300359,刘耀中
31985491138361,null
10030098996154,李幸
11420705782165,景维贞
75960321057155,林碧月
97868890193966,null
30225528771210,范利兵
26513265278084,黄金
25797873197248,null
97376917386421,null
11662931713197,李国煋
25802442539231,汤开彦
22054210686114,罗颖琳
16957371221019,代红军
25428300787916,黄成才
95776497223168,null
11412233391414,null
74554811555136,夏君
13752180729162,尹银锋
16797165040244,杨希茜
11476422657031,叶旭建
21242124308027,朱自刚
15413182328170,王雷
90399912876838,袁连刚
96996397067862,null
19518262585813,李华升
74362115110256,null
96581467894315,张逢时
99412361070715,余友群
15835173655088,李强
25854218954634,黄胜昌
90920868667199,null
83353225173661,null
31418177522594,张卫党
19366901975011,贾春桥
10162155476956,null
32126192540225,易发久
15923445442131,闫梓熙
34727610700085,沈世泉
45278371252493,null
44447518831108,null
76207627115134,张仁锁
74196915957204,陈华福
74706867042027,陈兴娟
25136189650126,null
62812560646251,王金合
29676281927522,杜志建
95764436682342,梁国阳
95791482666306,任丽
22818662524176,张淳
31718716098203,null
94835065072302,任灿
22226141969121,null
95951685407618,吴秋华
90677054431379,邱珩
40992021219608,乔雄千
19775422932223,戴新华
31009563126911,陈吉生
32425458721258,牛凤午
20176701399552,李菊凤
29798332012832,武春敏
57512888613265,null
22489765622115,梁东彤
11594204008900,董运福
10551855171579,李荣斌
73032161522137,刘雪芹
22191317255209,潘素金
19979187148817,邓猛
98787687417091,占国祥
20933683144105,姚存志
11145270362741,鲍亮歧
78873323121214,黄伟
92163804752047,null
96085976992141,占国祥
17202103744295,郑桂文
11354973030628,杨启芬
19766019718310,王广清
25980129280124,张旭红
35702282030871,刘兰
21301218911413,朱自刚
23510112336222,尹玲
32163283821032,李玉希
27242965548169,郝逢源
31536780959348,张伦
15842302235798,null
26246344675890,张洪贤
18411391742996,韦浩宁
92077613142462,null
19821178892214,廖信文
45581617729215,null
10162765266187,熊再新
76713716881113,沈文策
87155130958322,王毅
33479567507964,周益君
12613880469899,姚隆刚
26797323417059,曾永飞
31891553914264,陈芳
22175909285201,江金树
20361314558115,杨玉选
19925491427621,黎开华
31555504054863,马慧萍
89745530003155,null
27059982593558,程彬
18170871808880,毕艳梅
10557236814396,韦昌南
23599822896396,董祝宽
28338227595315,李炯梅
23517945120314,刘勇
52891287483036,董航
31407552375320,李小燕
85632517569113,龚建军
11682754987016,null
20191237217947,魏成斌
22241206734153,null
22135292763971,叶建槟
23000102566429,包自立
15834188171116,杨光第
15722163009114,null
29984571494322,王静
15516571580939,null
19541221044823,凌强
18563196812525,方芳
10472193541183,刘晓宁
11588249813761,何雪松
31549640641614,赵思豪
61111527767197,朱军
96037357503908,丁海军
45027468633260,时明
10001290817884,李红福
91269488590574,金杰
23715351730668,null
14368697632151,null
22488152275211,null
18699152944621,李裕华
14942105222626,姚远
22625292646022,胡宏进
20242139449929,刘振忠
83502260130210,尤东云
83852245408159,孙伟杰
37014872532892,吴峰
85491217014781,肖龙源
31235763261811,何振明
24207162132374,杨子晋
11675461119080,程建辉
97229057742642,庄良基
83107715518933,傅涛
70308819307325,陈勇
49211572649994,徐文华
29701343957421,徐孝方
31623900521586,null
11709742562121,潘兴
40062627459197,丁玉章
35379812222723,刘礼强
91272593017393,常兵
83662820525878,null
21681749724270,孔祥斌
32050252171944,null
89537525421882,李波
76783247321983,陈滨
78813130248104,王添辉
68562201831140,郑建国
54271519669219,胡立新
83651140292238,李春生
29575631592580,肖庆平
79371828949199,徐彩俊
32430983639816,null
29383312180663,王辉
82803102275277,null
29689487162697,王新征
30103301842827,宋翔
11372335325110,黄海泽
25884764873813,谷祖伟
15817942928220,张运波
31544301087807,周容川
54719216972735,李刚
10853259907305,郭栋
11512875338089,张俊伟
23422319384726,石伟伟
44553214512263,null
10751010214828,孟路英
66011944366529,null
54012554358290,邱先创
91370489056212,郭梦慈
97370732043282,石广超
89998313862227,李大钢
15496142850819,曹军
32629183012220,吕鹏辉
62472207736523,null
96535648184151,刘针
49852349219321,汪定斌
38101082469107,张宗昇
99149422205216,null
30999402730431,涂加林
28404525313203,null
32283845268458,马慧博
38011661989817,沈凯宁
16483178716296,刘莉
55902237415519,殷文宇
34347533971559,季攀
35436732779966,郝生根
96585413862801,王楠
29865272944657,贾遂平
61327862103215,null
33348234498829,李东军
21168197462853,张隆
15701121295521,null
19877572167020,彭建华
29353492060479,陶自力
52901545896280,陶广宇
49913057463161,肖峻涛
97322340628206,石正川
31788337978109,刘影
29454051118712,韩春芝
99839155290713,舒莉莉
23704376114146,隋文涛
41322697251551,傅文龙
98498337157083,null
32162481662252,赵伟人
85133624406672,null
37322993038706,施雯
80601920238708,吕雪岭
28913003242850,孙金成
14195232116029,谢铁军
98611974467166,null
30172322553138,陈元刚
99017378232174,null
86234124742232,韩子逸
29914197475227,赵兴庭
34013021584709,周明
63952176781701,张维
33716551486387,冯振雄
35532922530616,张锐
30583091918191,程天海
38471122894287,马伟
30132112942505,null
44448015312646,舒磊
31952824822325,张毅
13732928556205,王大鹏
24344158509965,李建平
85861719228551,梅向东
69414730810177,杨倚智
82755011151225,李春香
19790435525417,杨尉
29044243118901,null
29331011808313,柳洋
19364171827131,黄金鹏
19223153054765,袁术
34727391388977,罗丽芳
44698319948236,傅金祥
57831932938270,null
98226545724997,沈金刚
94663405998661,葛汉冰
24193197146213,null
53351156849903,张岩梅
75441951146200,李松和
10590700644972,梅品兴
22142168217607,张文龙
99478431852601,隆风清
92926558701174,null
39912303224666,朱恩龙
40512053667222,许瑾
37110884771162,王春华
31499103753453,null
58891628887916,许彬
16847171139126,李金峰
28460092880928,张帆
28930408538126,张颖
32726106361393,潘祝东
49523941811730,张琼
22397612521933,沈鑫淼
20524108851212,杜光
27790941721730,郭逊芳
99078803212567,null
18701331014201,朱瑞娟
32712206206281,胡大力
98614154709573,null
99611742539339,方谋庆
23242732803329,null
10351522858934,张梦儿
29735706419286,null
23933181669761,陈阳新
31030209441433,潘文波
30629232713690,贾红卫
30276323777156,马跃
81099988341272,薛利
55164926473236,李涛
89931818573359,null
23409104036994,蔡家有
53973180805263,薛永祖
35118402181427,徐晓芸
46892745819223,李沛祥
29794231821360,null
17589190412528,谭宇龙
83592790107109,null
31434172459336,莫万奎
59046939971632,张国栋
97852301811327,黄林辉
57092026346847,刘士冠
55570219205635,郭丹晖
35848129558247,马怡庆
99191041301325,null
83925528595183,王卫华
32047501815711,陈东海
21491808642135,解云丰
32061788717228,null
98246194574965,null
12183822581229,朱浩
14693477247281,辛晓刚
14814419879111,靖忠东
30442312929266,邓锎
97711221440259,蔡仕钧
30097224930725,侯星云
20681272752440,徐新
68902438991192,吴旭林
83333067408118,郭汉州
29574666368210,文跃然
96895028591181,黄国华
20767273714229,杨超
51922925907913,郑立新
30767109172256,孙桂岩
60417347136343,赵嫱
57322822044193,王道龙
11550488361312,张健
50762014083873,刘智学
98986786137044,马诚淳
97853055306778,张福生
89932293799188,刘畅
35562057858231,许德刚
74442709235622,阮慧
27327837722481,王颖
23619224133172,尤文宪
89921493545428,杨富伟
74531790607319,null
99388298372710,张婷
31884983751037,李娟
31696184764464,null
97902675628290,唐新宇
24290309561836,徐皆宁
48121902131393,孙伟章
49053089501816,吴友旺
32275992551832,陈炜
32066175723122,丁媛
98217156323951,null
31922412118880,饶俊峰
54203179601160,null
76972612288141,丁勇
35924762301602,null
85512080735270,王蓓蓓
45995587223105,卢存美
76532885415158,null
10074279153057,陈国民
16819673135621,皋德耀
14837391761130,李必录
78444179491739,陆克涛
19010121593315,徐卫星
99610714294513,null
29978160637126,陈鹏
59974928262185,null
26636088568149,null
94575469693656,魏强
22598295567014,胡宏进
55849070491548,李娟
17065282926722,null
32194181946552,null
25728477736274,曾涛
33581826150192,方惠玲
32134662291621,任恒天
96405566112261,null
95512001773624,李全发
50642169527822,王家龙
20243108538727,张延锋
91507777202593,邓耀达
28998953118965,袁帅
11129281472686,张茂才
30253818357207,韩秀月
75521370772765,null
19455576831218,null
99039164969710,null
98047153053382,null
19247176929718,null
21929174145275,陈标兴
11080749483163,null
28810419259168,null
73091833482498,null
78852793597940,徐安平
99851991382438,流通股
93276337701856,null
11252068074841,张文清
91222545737998,马昊
25327531961111,宋志强
74313881314102,吴君快
98792990301847,曹英虎
90441951629642,null
50766820563127,李廉伟
11377621164654,陶云辉
99834389459163,孔令娟
21149187677417,null
29681975134690,孟宪宇
74281166141683,null
17322031645226,郭海棠
97676068045740,冯静茹
30530760619314,杨淑华
18292216201324,徐曙
11321324054914,陆雨潇
26608363149488,范晓东
39018131342129,陈玉兰
10861851532529,龙腾富
30114246110050,王善添
32678481148029,童佳璐
11192607378278,钟淼
64680112654135,王翔
30607314297245,陶利
35560504142759,吴振兴
15296791736779,莫林宝
11578000732338,施行
31075151738035,毛振斌
23126193866413,陈钧
30089759564193,杨天钰
14283616211134,刘力衣
31700725851414,王泽振
11476191993527,叶旭建
98815955445142,陈玉亮
97793655886085,黄静
99161656939013,null
44627274221232,刘辉
32306292898620,王剑萍
54433137368242,凌利生
35462544019776,李竞男
11132566761117,陈珠
23005133876127,朱成高
33512627181502,孙芳
25818414724802,林土兴
32709307192366,朱宝萍
32657245292015,刘飞雄
45452351461493,苗玉水
54574017365243,曹春
10691397191345,null
13762528569905,丁燄
29423994485814,null
97138522159122,null
94058581131763,宋倩倩
10659458545504,黄慧敏
89912204129901,修立进
71616081702439,null
77802290019022,熊鸿斌
18148467861231,尹可为
99332294787935,宋鹏飞
11103202075415,王普申
28216145460025,null
72258797501239,陈才根
21151312137329,李训成
11582382008211,null
12964198837882,null
23788357956105,李晨
25767011732918,李振华
34817152159617,赵利明
25477054954948,谭庆超
71018721958183,廖应娟
23225923446258,王海天
40951588941283,陈永红
34473949530424,null
11833664450022,null
33881199462360,冯柯桦
18488161119843,肖景欣
23125752163712,陈光红
31030178384122,丛妍
16458349791958,王海强
69955010557104,张玉成
27313451901919,朱龙江
99915038489078,null
30248210850615,宋长雄
47322281354183,王建将
35808661717847,周椿浩
14648202718347,李春江
15774312025267,王锋
23761160909735,周志孝
19187832959125,黄宗欣
91704825647214,徐新喜
22098141646526,陈少尊
49093429580196,郑子进
23898678864197,纪光胜
18872176196526,null
29806118002625,田金涛
17204133138525,徐永
16817305685528,郭伟民
30132571130588,吕广胜
97102797320690,李中兵
19968179238186,邓敏
19310029036399,程军伟
73963627432325,庞小伟
77867417321958,林从喜
10121108740894,null
35712102303045,张堂熊
38211102310857,汪靖龙
31560157300609,陈卫国
81339811220173,null
22246171973031,季辉
61084793642295,罗时军
29347716365073,朱明金
19614311117523,null
78968318536215,吕超明
99098939019661,张甜
18830551973573,胡少轩
18606143970116,null
29828381513219,宋唐
51311681049100,唐跃明
28851551329416,null
32697202353318,陈国勇
21573252212928,李仲先
96075085541418,null
97708250516587,王如光
30689469936040,符秀胜
24419247150377,郑晓锋
29056620208255,于孔仪
22929251690259,颜冰
32637371767758,王金凤
27407123462523,丁伟奇
10770937035716,吴兰妹
96382855721943,孙昭华
23385793504118,许峰
23689645267763,程婧
26888921249878,张变婵
90986752249964,null
81951391321644,王胜
21155482638521,梁军
40271071945824,高振
27337111101213,郭辉
17254322079731,李城宇
99664620955710,黄俊荣
17586814307181,李先珍
13994622248029,张秀
89902696739771,陆士杰
24139372128270,null
91865677482004,null
19039055632850,null
94194151650940,侯兆仲
10818569630097,杨琴
26576532032620,其他
97712894224218,孙海
10985027290016,陈金英
33720311598130,邬正绎
67552278937923,王顺冉
43681948642243,周彩霞
19983240964175,熊姜波
17951243926548,宋永琼
38743247710282,null
31578094725610,刘鹏瑞
15102322879305,林发栋
29708759267083,温建忠
25537324119508,强星
32627299830838,韩毓敏
30501168880585,孙远根
57688972441589,李潇苹
18661912917512,姚智豪
26308518601688,王晓栋
29665265938102,李念强
53873172722279,null
97239076261772,夏良干
19877652779590,杨子湖
91450000183460,刘飞虎
55182449280239,蒋红妃
31873213613546,吴羽纶
30073219011813,曾浩然
95084117315786,null
52689730557276,张礼建
79113220222807,张歧虎
29686341084720,马志刚
69929739542657,江富春
15449801891212,陆萌
90195991180899,范煜
26731002772121,张彩娟
35263431446148,范明科
31861982819030,周彪
29424224458844,朱司海
91344285802985,伍海英
12303641646129,彭晖
29174771380695,张旭
89843372622208,韩肖彬
28833482621562,李少勤
29241836325470,姜雯
18708842029331,钱呈
95414992903798,陈华
22194679668338,伍斌
29424126205223,付金龙
97597322096298,null
99471217452554,李云
95386396190623,陈华
91177507782819,陈佩琴
29283824168946,姜雯
99409378013879,丁克俊
31741168866694,吴继发
10857359054650,刘福文
20575132696319,郭宗运
73632093772448,雷珍
11208206409318,韩树玉
22011854116197,林明铭
97783083144729,夏吉焱
28990150394628,黄少金
90910086463709,张春堂
90991442343497,喻新霞
95152890200870,李晓明
29022057745146,王秀利
99386872632223,席德惠
99855359837514,程曦
89627011526144,吴双双
19341605710168,赵正常
15259215759424,方万兵
31824277156823,曲学斌
29347571113031,刘云梅
11685439074310,张文生
97781485060076,潘国立
98360198785594,谷淑彦
52266731305454,江志刚
23325481338818,蔡忠华
95017011977604,宁桂香
91229186207162,潘玉芬
94460861924578,张革丽
74941363581171,梁彩霞
53029441153914,钱春明
90488242018849,周伙荣
90168695459272,陈华
61741621158175,黄联庆
70410531273125,刘云辉
31516257602314,郑仁林
30647552228028,李军棉
11204326677327,null
98271836462216,王宇
28691281195862,潘建华
97655009066367,徐政
99754547054834,袁家兰
30370968128496,陈利涛
99388295811458,刘兴华
29330801572056,吴秀华
23304173903114,朱萱
35425091026308,null
16119104269224,戴国贤
33825117817405,张思涵
36071262123354,张莉莉
82663014259169,朱斌
10279210197804,张龙
19691705938111,骆国强
89638570923828,甄朝焜
31126928366269,台菊青
23766837014246,付德才
10049476316070,郭明琴
31912212544046,null
23137733031622,袁健
15216452958119,余清权
90878791461487,陈华
91741620899815,卢小群
29286912250521,柳洋
11897621971130,程正敏
97723215781213,王勇
98562827862294,null
78638314519275,范宏
22464962743320,齐杰
85472808724140,null
95324212100759,陈华
29737322319429,李浩东
91491798151213,陈华
29343059579429,杨进能
32374982711118,侯金涛
27636310823515,null
92960902829396,周博
90396605104069,朱雨尘
28441118883286,null
28078088172373,李伟
31421284369116,骆名井
90875707227512,陆小忠
32112880882942,王成俊
29323477134769,何众
11443461321148,黎巧玲
16811212704451,许百剑
25221664403315,吴永基
32697119384308,吴伟克
24196627436448,王小燕
22954176445613,邱鑫
17709401994913,明宏
99669805395950,向显应
96588109063548,常明龙
76321998445279,陈艺坤
43992715970278,null
29356952252610,吴泽东
90874796334236,陈华
22186121177924,洪芳
90942900298033,陈梅芳
49241350265102,邢菊霞
94507738432077,范兰忠
99261650093069,徐启明
96290357492269,蔡爱珍
97946472268363,王向荣
90478431943348,谢越海
11198135434956,吴保发
19843979221312,刘克银
29286709578207,肖英
99277365702327,null
92274598941120,侯红霞
97970252313037,徐年娥
35672635987183,邢克宇
29716355253087,彭文波
41183713911279,李莎
43861251363460,吴昊野
98486387101725,null
90836692429043,陈华
94625423530839,舒信兵
64700126338134,夏建明
91478877947167,陈华
17059211141620,李洪
34671709179609,李成霞
91206485884907,null
24105793167992,郑浩
32451293055819,null
26524032909753,刘斐
93906115849184,皮林生
14816653226711,李建勋
23571213681190,陈坚茹
60314105153101,门长阳
93112694128587,寿韦达
11259807766641,null
97332290722095,曹范敏
10459642658182,杨红
35345101416579,null
92940355114353,null
10689035113497,李志民
93629543725110,王丽
11810957638307,高雨
10581396392375,万晶
52277216736215,萧央央
26800363480640,null
76304986761065,张文字
26030965345599,周渝
92056952245783,倪晓杭
65004923783265,null
26300451578066,杜子文
89737613967322,null
14941908444167,李方方
99941105064606,胡大薇
18136112518825,孙玉成
32757237725161,null
37740326056837,雷涛
96300949790444,薛博
27326115481713,沈志红
22495328613085,廖荣金
36852869713876,左新星
82492718775958,null
85852552155878,张维谦
61481210344152,null
11531206542903,严斌
28577932423270,马槐讯
10197189435246,夏春生
17283480376217,陈浚明
25037143060798,张升明
10786050260170,张东军
96005989582131,廖红苑
11033592727218,叶其听
29284493460546,陈磊
23128217371325,应建锋
16944240813275,张辉
10440485874105,贺嵩
31324711975798,胡栩
29689736990080,杨彬彬
10046060450577,刁艳敏
91510980057988,null
34075251932925,王从顺
11635151222210,洪流
97956513714071,肖静
23286142291024,费浩亮
29886043464697,尹守铖
29666754954889,王东升
54942690722754,王珊
30780162969010,龙伟宏
26746117966015,陈煜
16919602239413,姜小娟
16724123425717,贺文龙
30116180586522,刘智慧
16324144964215,李彦萍
38491957975101,苏淑君
23793818089070,高仲元
96875975193481,张国林
24542069716355,成琳
35508275545490,吴玉燕
97456885820931,方诚信
29464641335739,孔祥文
16631287278325,null
35838656879337,付德才
92005755599690,null
10985612535003,余通
65221731383134,陈鑫
59372303263542,费宇峰
11032460239411,范明德
93912654300531,陈进
91165938706803,韩丽辉
11580113436221,郭春
92166882485063,陈海江
28692356452697,null
29710121353917,null
66801767484252,null
19160265730210,null
26934718038486,null
64202160610909,null
20680061911411,null
62489302231161,null
31837302881621,null
11716023333180,null
10186235308698,null
95629589339229,null
44493878543120,null
93441878557812,null
88400969041753,null
97534760978786,null
41921222401177,null
98566943124300,null
32209145454725,null
97902604577246,null
24196428961248,null
16317159171299,null
10934810415705,null
62488327325965,null
43901035743217,null
94671301935960,null
19580081252612,null
10688959762624,null
85302376313341,null
11307820030638,null
29349939007262,null
31285779279731,null
29964864737246,null
16105403575144,null
29313402122619,null
37466289501914,null
29507281396126,null
21495001098632,null
33716288451487,null
61773283682930,null
11419104541992,null
28574301711145,null
27798041618200,null
30162015050118,null
95653476836746,null
33489648629126,null
30021577782072,null
31724228727281,null
99207030109706,null
18308484744935,null
23666584303039,null
99654532561925,null
31203331631718,null
71271588993342,null
92534423010388,null
33984338535653,null
10036825259877,null
32805818649617,null
97857301957730,null
35598107746050,null
98062937011225,null
79184202672855,null
89147595640173,null
98116590482559,null
90396206531215,null
10726244072586,null
10691256070424,null
14251832767911,null
29915200121625,null
74851738520180,null
32326951845240,null
33253093362024,null
41405195562746,null
29078683009532,null
14976103426618,null
45742149092114,null
99368543652686,null
23470784412604,null
35237281942759,null
31727126682913,null
72372566386878,null
21682209516262,null
23262006722129,null
55021331363898,null
90334291007165,null
29970221164415,null
89511119395681,null
80117525073293,null
80846312475314,null
31922322313160,null
15252511825114,null
95552777902954,null
95508583183263,null
92749440466607,null
93269432945786,null
93047095378922,null
20246433292270,null
29397931246712,null
20194781387922,null
91274651419943,null
11591211352913,null
56645881542702,null
30172343637998,null
10718147032156,null
30746451482466,null
30679183137120,null
32026259839123,null
76413144938171,null
10888433135038,null
35619784793830,null
34105783266166,null
95047368072692,null
99118469592634,null
90811236958289,null
30700156270830,null
11077289054937,null
24073449240276,null
10031792164694,null
83761751183106,null
64463160733100,null
74302811949316,null
86832899518126,null
89414419974736,null
89415038174691,null
72601152227002,null
30123102471017,null
78115324599123,null
79441042140120,null
93373227463205,null
97293437101696,null
30150603173881,null
95734671765415,null
93515628334380,null
65453480147632,null
34235097844789,null
33374860277811,null
31917229921945,null
53998416941165,null
61542496603159,null
10817178857700,null
30816267951524,null
16029931871980,null
43092028012197,null
98972667028820,null
98117422626026,null
31891189958494,null
24170679577277,null
30441169129476,null
91628776376016,null
31516262353028,null
91952997578410,null
23780366680772,null
43462830491370,null
31679389999905,null
33232035976879,null
99596490823855,null
58853008798202,null
24631940062223,null
22129166331445,null
32648135200522,null
30721843012612,null
11285477770657,null
35061472638905,null
10834582132037,null
99487602333210,null
32275332563370,null
11361206372781,null
14241941189150,null
10133416578348,null
31190174276216,null
13760400350483,null
92278249824943,null
99486876917638,null
58043729252155,null
16570382819222,null
73081426795210,null
31989412233461,null
14201471999230,null
29961463972568,null
11601671948432,null
97165836656798,null
92496086001213,null
96495956439666,null
99953902144757,null
57781125633590,null
30640255524423,null
26789197211226,null
97320910682262,null
27694285720402,null
35138759243514,null
90204054717578,null
71765874801567,null
35233635453809,null
44648590612883,null
11025608957948,null
23888522796699,null
34319632826443,null
99184528371786,null
80071564289288,null
38667252251768,null
33189481720112,null
92221326749198,null
97291928994279,null
89673195616601,null
16267913979177,null
61877614371114,null
91441098414502,null
22684016228418,null
97995853421268,null
34856361545591,null
75776435071246,null
16107025268929,null
31917108929213,null
34945415509971,null
77544112971603,null
62671408792239,null
74706484641896,null
59819087722858,null
74664713922927,null
61581788311608,null
57223722305144,null
83761751183106,null
29922076225577,null
34942657067920,null
34209571528203,null
89391190379714,null
74331655827131,null
10601131804882,null
53961946423130,null
93106007007575,null
69058576701600,null
28858125677559,null
11306564952415,null
10743278603955,null
20089818042286,null
10652323502323,null
67473070142004,null
21029411877260,null
30447542429120,null
15002103759127,null
51326171882217,null
18213257589118,null
28982199094314,null
32276291891223,null
10920651721903,null
29664187500426,null
30356151102920,null
42249120291383,null
30361210767455,null
29710753377253,null
29747413237529,null
53968047273205,null
95386806888887,null
17371167649426,null
95557858640477,null
30399194463515,null
97269190281290,null
21472244573814,null
71771287858612,null
34582431686994,null
74961354178119,null
29197267067157,null
91007619870289,null
98062714015286,null
93381527001409,null
92895131821927,null
33710112612230,null
30905111698179,null
29298271458827,null
11146129907311,null
80400715787223,null
82701747327861,null
17250582358531,null
10913690569885,null
62733260075312,null
62994174131648,null
44751730621625,null
30709683805504,null
70647283382363,null
70647927560153,陶鹏宇
31063782859410,null
11582924549741,null
18489132571822,null
58041754106110,null
99465099917788,null
80008617618285,null
10209606471157,null
97017443643944,null
75117640042278,null
23838231611529,null
98376146374116,null
99045905015345,null
28823661174163,null
40315537822889,null
99782752221958,null
30832769908194,null
61817073632454,null
31780562960030,null
29897509924587,null
63756415195186,null
29917082952740,null
29760527911165,null
11019170797848,null
29597178466812,null
56481915417914,null
91544465748496,null
10038181202111,null
23795615630660,null
27343872803419,null
29563996741697,null
38151571557507,彭伟
98271393733828,null
29189279256296,null
29286971528591,null
90613743803814,null
14842115433797,null
30601597765604,null
10847429077890,null
98283951299859,null
90457255589376,null
97597466675195,null
31405916046528,null
92660596368805,null
18146511485921,null
98729480444139,null
11277055390052,null
91519368248556,null
10039411459540,null
72226258123892,null
31752198182326,null
31639651887130,null
58032898416153,null
31640154749524,null
33927153028005,null
30581061475011,null
30581027917551,null
68808320320633,null
30111271146816,null
30713804022347,null
30659130590642,null
51318419221982,null
25947660933726,null
98533108071157,null
23659243414232,null
26562141949622,null
71590719489184,null
30592560010366,null
29570663151200,null
66539212583236,null
24473398787316,null
91777685217888,null
11133389495816,null
30023231243220,null
73572250207699,null
43091163259441,null
89395946226844,null
10876689991265,null
10488131177824,null
35282121155785,null
16823573303143,null
97885647634334,null
32293922430858,null
28799242967475,null
29655112207626,null
62642609538603,null
62321378370209,null
68465426266423,null
89420728079279,null
85823910438262,null
19570061407622,null
18510716335482,null
79740019476145,null
50445221090278,null
93300729405994,null
96735201223901,null
25737117788148,null
18392511355710,null
48502827873234,null
71859126296115,null
51104229230156,null
20030911014889,null
10911605701843,null
88622698073186,null
30695207891616,null
31385169068615,null
10651856962062,null
85312567855558,null
16230243270557,null
25587099126218,null
30831037941020,null
67802040423138,null
30908423427149,null
99617259713527,null
75252520135273,null
60599028690315,null
29165921844011,null
82372309999259,null
94273002212803,null
77221732422196,null
81289413045254,null
29469269321010,null
10697337437195,null
30296931876283,null
10700210226517,null
98783013543379,null
65469288321569,null
10929087638151,null
93986474955744,null
94347265392145,null
63851614701150,null
30333515383117,null
64183067035130,null
29306915501992,null
65767825334917,null
98062703611327,null
18335612622326,null
30841395686251,null
74412412840125,null
28398616977683,null
10983053646818,null
10913440581365,null
72762220678962,null
31145912816436,null
38321681827627,null
32796022732476,null
28830183221916,null
93825710516174,null
71543642633217,null
35714152792116,null
91249194940025,null
98005910469596,null
25121648029249,null
10073718610113,null
61892293637321,null
16192130564547,null
62268319952274,null
28940274893118,null
68674812764254,null
28852942244721,null
10741571852229,null
29691706713208,null
35202725958445,null
43362459227505,null
30855279483926,null
44173255125675,null
97827793711086,null
74494469131481,null
67015283001708,null
24591173864302,null
25570366376700,null
26525121635119,null
11561482874456,null
23797391431220,null
21581195411627,null
25021613078540,null
89531135330480,null
89460981984851,null
69382329637210,null
44486275992767,null
31687237761132,null
12773891290269,null
28953064047221,null
63248605081021,null
31183640530811,null
23686312042427,null
30092604161254,null
35239189791969,null
87956729392154,null
28808543056829,null
10307144800938,null
29999746182065,null
33606287712307,null
30670785727223,null
67869030609316,null
52191360213300,null
29414704691144,null
66873083685101,null
30125597332039,null
33912258584536,null
30719548017032,null
91090003429020,null
22593122514072,null
30150681434302,null
29614456108226,null
46805418891813,null
26525623300519,null
26132464581780,null
29183669259706,null
24096243255048,null
96384964249903,null
29784291043417,null
30588473713160,null
95277836919946,null
28782254424663,null
69952460096122,null
18137763469757,null
92960841971965,null
92642663125748,null
99067841103474,null
17388276090128,null
31649203999260,null
27434634355194,null
23810473223922,null
60272330972197,null
98818970318328,null
99577443055778,null
43577912564866,null
74961923901728,null
89607605076231,null
77998121186371,null
73833976022887,null
90054803519757,null
89738933914654,null
10955962251296,null
92051036429860,null
88862604926937,null
28903317598491,null
10655042213288,null
10736802142810,null
97046109039081,null
22021110022124,null
99653520771372,null
10309252480897,null
10957256346567,null
15146314756239,null
97310127531724,null
14921750261501,null
30466110082712,null
74493820398796,null
30821061394040,null
79192881826100,null
10485320093857,null
71192348670688,null
72911486210852,null
98236008725588,null
43221603221550,null
11659167263088,null
99176014017487,null
33205821995310,null
32592023112121,null
16901275251526,null
61207724781126,null
67616502042210,null
29777222750119,null
30216723407736,null
36649311819287,null
10974697147603,null
22538131872823,null
74594822754256,null
16807575991149,null
35618002733027,null
73111255470187,null
63491983925159,null
30745249574091,null
30577043247691,null
11033857015861,null
15316791351559,null
80836622981195,null
78424070532168,null
30420839978695,null
61672896366152,null
38457832079319,null
98498542795023,null
13735348654515,null
91390428814431,null
97663011532582,null
31546412727218,null
35139140729343,null
60286241128332,null
11509229088173,null
45531763458712,null
72674974391200,null
95478338519449,null
91629847575350,null
26440189830977,null
30742239408635,null
26933451687511,null
32016320530215,null
33041273933795,null
43495909328075,null
19410932260569,null
22564330083718,null
11145765675141,null
17814418038671,null
67382878742119,null
96617011459213,null
54882765882891,null
31163298236066,null
31748871475028,null
30344712289919,null
29357216971713,null
32120184568402,null
30443003138123,null
73510516473263,null
96354840235366,null
98811040389378,null
79301371584822,null
31513267189235,null
29596186282612,null
97128456719764,null
81499795996012,null
37221996322122,null
66531219962546,null
23791181693841,null
26785250353423,null
16924145598321,null
28932598910232,null
35308382387227,null
92525648076488,null
61881004571108,null
19000830454069,null
75423359042159,null
83602289018757,null
40719828738189,null
26898742655758,null
26604843361593,null
45212436211193,null
31972252392470,null
11020611528455,null
30456682711059,null
95556244023108,null
30798576025148,null
63223260095181,null
90855336299264,null
52982292279599,null
30349230420594,null
77183813283175,null
94895264310302,null
75523088840338,null
32596021506428,null
30613182715267,null
66014761107672,null
10599300907047,null
69151931891187,null
87971826593639,null
11241003698505,null
16019892128320,null
15254331812521,null
20090231223165,null
20091246686727,null
70184720493155,null
17056269558917,null
26488438041178,null
59801336778112,null
31619195924283,null
30614337807582,null
91272926975093,null
30172185740532,null
31831901483516,null
90791980546189,null
29793180023577,null
24096785342798,null
99380312534234,null
35020269158343,null
37240760153517,null
97871708807285,null
21431123633625,null
39222571950017,null
97576910064220,null
66561795371298,null
91330652547932,null
10084021961485,null
10577434700147,null
96492950228313,null
99924528748560,null
94714054580214,null
29579987151200,null
31192320017713,null
10944618850532,null
59942296818269,null
30953269177457,null
34209810407366,null
27506234467113,null
29032260502964,null
74932671983221,null
68291082010311,null
95284749081480,null
35592314689795,null
23701072624971,null
73382196614022,null
23780547046894,null
31371112886313,null
71372258231119,null
59940026373598,null
59876516965327,null
30900713040229,null
74726129515126,null
30592162658324,null
10922286923831,null
31894722639139,null
28575531286373,null
48648350583217,null
14705947947669,null
31421310131632,null
11095500351166,null
16004131388615,null
95942321291443,null
30475528505984,null
98197185239891,null
17036751882423,null
10565814608327,null
78294212399335,null
75560739882494,null
14358158682317,null
89006420564213,null
62973185819110,null
10583858562928,null
11504324105630,null
21750192211796,null
30555122236822,null
93138822641124,null
93974572498780,null
94837094613913,null
68351552723738,null
11283918953124,null
29306931244912,null
31909431362441,null
28798254238113,null
30526561877928,null
52576826767308,null
56427117839276,null
22994393102178,null
99228483955261,null
92865178514164,null
32275431860570,null
10038132887071,null
95385929738253,null
37581002404141,null
31314917463058,null
13879919702115,null
46885912102228,null
46161256168133,null
64464122633267,null
96361466295427,null
89758297963587,null
26519263498406,null
31114639681490,null
89538668162759,null
34132543076576,null
28983165055627,null
69389522353248,null
75193252328267,null
30738383415198,null
29667940202757,null
15752071142322,null
16674170363128,null
72931728220258,null
30932288185623,null
83470849222243,null
30492523379855,null
67882728536169,null
28074329772711,null
31612605726264,null
74590655102054,null
31688195754514,null
35657000060428,null
29327671519151,null
44441841145240,null
74719819013037,null
72468588591107,null
35187218336146,null
31682495247143,null
29524699721317,null
29905293875877,null
89414958591618,null
33518474546880,null
30741775732226,null
12583323495179,null
98024311635966,null
73207519547264,null
90935400065429,null
74740320737325,null
80722132957120,null
66155931546145,null
74771155628922,null
29876260264743,null
91087598966964,null
91128672361734,null
27242620459155,null
23375837799718,null
57336211447466,null
79615714991406,null
32093671694410,null
30523099591651,null
70896971129202,null
35782000950959,null
75871773841119,null
25833357121086,null
91405796902278,null
70062359221022,null
97806763401381,null
29309917749362,null
30143560274243,null
94703649130561,null
32132188666332,null
26469788245030,null
48082020738286,null
72381463920151,null
93400559236016,null
93042443090401,null
93532568254424,null
22470194000717,null
39922407590917,null
25721259537023,null
97148093865585,null
29416941985316,null
53174265433120,null
18081691534474,null
97224425061887,null
47824745892673,null
10318973243122,null
29891416485432,null
28574136365872,null
15281181934320,null
95594412065131,null
84625713795104,null
30453342701919,null
32444244513254,null
29759893883497,null
10914985921652,null
32485430531318,null
30867387980181,null
33538787417600,null
71073125512315,null
49577787471977,null
60816326210164,null
22294627340528,null
15631741131822,null
30012451332119,邵根伙
30049224537125,贾跃亭
32476211575024,null
29660761602621,高少臣
38301459065857,null
11356720152414,null
21783023059528,null
14026294626654,null
35327282696173,null
28966511916832,赵丙贤
31342632727673,周延
95835974593673,周亚辉
26484790192369,null
46040014998876,李利伟
33376402204453,null
33364516441168,null
20933272522721,刘培文
18129884592593,null
80170416038234,null
24579292870730,null
11526886519365,null
10036721811263,null
28024611313810,杨正伟
28044462654331,null
18030861587051,null
99724920548552,null
41522973496162,熊俊
11167231166887,null
28941272856223,null
23712459323543,null
15954212097012,null
10657287256985,null
24731667008184,null
32770228550120,null
32377892110931,龙吉生
30389176465815,其他
36711263899164,陈金霞
11615898981026,null
28313381622619,null
94337520462410,null
31784791094229,null
99441412990262,null
29797131587619,null
38151699789431,null
30047437639285,null
28679204300126,null
32443518169306,杨旭
99036373767737,郭倍华
29332256309647,陈宽余
34114729530450,朱海
96832513417420,李瑞强
30290722496331,null
94543529401701,null
28877133714287,马红刚
66594641301981,null
32235206567116,null
97380753489483,null
28790303271722,null
30366433115270,吴洪彬
15832190932167,null
96315929582690,赖春红
62559013607975,邵华武
91531145924989,赵百慧
29024442650020,刘波
32707202922556,null
50261703875074,王凌波
99415959999456,null
32711827500275,null
23867322723616,null
98481845191912,吕晋杰
29669976689434,null
28793158181840,向军
30135207286816,钱晓钧
98042513445727,其他
98845147254529,null
31054020992367,null
11135369128668,null
98479490314119,费铮翔
99219919026244,null
24236587753538,null
14019190257307,null
19362742150320,null
38677019638139,null
35904317200149,谢新法
60318642221156,吴利波
32689723272930,李泽诚
27587802551827,null
39713978252006,null
28135693663193,刘大涛
84749371702878,冯小平
79921068330222,null
30737201859511,其他
10847242211680,null
30922142782400,边海江
15511166820565,null
54852635252471,null
30457522843899,许松山
35012551120271,周明峥
35236161753955,null
33821248613516,秦懽煌
58203610837135,甘海南
77632053233105,夏春良
31304241215227,黄崇胜
28855805042885,姚世平
81339424121162,宋玉红
18283406629468,null
28793972184320,null
34144963260550,null
99224705861567,null
29832201537941,郎亚东
10886018436767,null
29052181329783,null
95144015276035,null
54364210289248,null
65488524734185,null
39201259927136,null
49571912227231,张文武
10254183198551,null
59041313133248,null
28575465108394,null
10902088779454,null
28868559943139,null
99168408202674,null
98017585583832,null
24791191643327,朱心
10804003117756,夏恩生
71051730073108,null
29679266326402,null
30120515472949,null
10611397140295,null
35942457113271,null
24572214403160,null
15432253741116,韩旗寿
98360321251942,null
29589051318611,陈上助
19460337781378,null
66861627051279,余继平
40981312904167,刘守东
30749151922926,null
71045227069744,孙强
28813319000825,null
83542431139620,郑家有
28737397959325,null
94102972530200,null
29094242504061,null
29058322376917,null
32722248551162,汤德林
99178110254274,null
30132193343215,刘霄飞
29005601772412,郑兰英
29454900615175,李娜
48442607312111,程勇
31714401909727,陈玉平
99492177019209,仇思念
29700332904055,齐红威
29001295042626,孙满弟
95615175959186,李国顺
23882422597161,null
94617225034729,null
30442913922723,null
30529249081115,孙天松
91592500941062,高远
29341998081292,null
29290899742942,null
29813022073485,吕勤燕
29674120907746,姜特辉
29671131897255,null
97863057259219,null
11495670941628,null
98330914150682,null
31770181461030,王宇
83824326102193,熊鲲
30265893176290,李育强
98616313371393,汪永安
29685986382097,李兵
30122690899133,null
32568284484413,null
28751502251021,齐中祥
98691375628256,null
63102978911132,孟建阳
99052945996543,null
83972254475290,null
83702575217981,null
29353991388052,宋坐城
10068111314245,null
20913382416811,null
30905608991123,唐兴和
26579082677240,冯跃福
30511078549911,null
26545185159129,null
32017590503071,吴峰
31171135260284,null
43453801151120,许智俊
82793780873236,谢敏
28918932797110,闫德君
29451608391018,null
91267201301980,null
30370303638172,叶明
28883761435643,崔博
30472816532282,王玉林
32189622977211,于连富
42991013690449,李志
28781251393417,冀新江
28183140152716,张钰
29728450201113,null
34945906124016,null
32612171144391,null
29009632038712,陈沛
33802351490951,null
29705952486273,董小权
29856412710812,null
21945110045627,null
99209178860084,null
15580222518531,唐广辉
21343213012614,null
31601191502901,null
30452317274755,null
57821824516256,null
33981166018114,null
43483062966214,周劲松
29911291858350,null
29599837321847,赵慧峰
83353857743067,曾凡付
28890108561244,张炜
99383682792510,张大磊
32920452131128,胡永利
31283625735238,null
99001413005137,null
99054078648913,叶逢光
29421842770077,null
27564231584323,null
28683216618214,刘玮
99042889179469,null
97506942566161,方向红
11645614211570,null
26358138530485,曾文庆
10207159359098,null
30110540563723,null
50992951609373,周明
31326572464670,null
20176151837484,李树森
28602040890935,null
92319253551205,null
23695297121292,null
26763323128112,null
10037343259451,null
23860115127686,null
58642581571322,null
22882430023266,null
98594483364395,null
34231609391334,null
20427031450332,null
32646713694835,null
28671241256222,null
94945482250363,null
97986867273021,null
28757691400189,null
28134032832320,null
85341752904209,null
27352997759527,null
52873050790252,null
11603845963636,null
25385142524945,null
11289243949595,李浩良
93378309865388,null
31343842946711,阮炎林
30243152743718,null
42242782001181,null
10073421361656,null
25299323463356,null
76633313566243,null
28960229257248,null
89411432109936,null
36107999295794,null
30811388552311,张绍颖
99034448439910,null
26246803600632,null
31566254659824,null
11590471802187,null
26242978154479,null
10559543263494,null
79767829572157,null
94595490064665,null
76361564824251,null
28411624520537,null
32356622675470,null
31473115749312,null
28387953068231,null
50301183552100,null
51492291391582,null
30671470721526,null
28870516113048,null
13944556818802,null
25469237645100,null
22115222967631,null
19510172270419,null
71982474220129,null
13915182204114,null
98167876799193,null
55732184821121,null
32002572217611,null
26005237049626,null
97888296947806,null
43678523427179,null
14035422044031,null
24746991070018,null
27939416500919,null
26934133935337,null
10616008463448,null
65975346821146,null
47447840421418,null
29676019806576,null
11149678658321,null
35073019533220,null
26160221315224,null
32837556143226,null
24801168014025,null
32715126056233,null
85420431601293,null
85853111499962,null
10550457502392,null
38001011172987,吴奕
83341325174105,佘芝
91516018681257,null
29138271483524,null
26198191716818,null
26298845033208,null
27053190130614,null
93317316859878,null
18212117078997,null
28852664073085,null
17333258632766,null
59981240277169,null
21535974137149,null
29277828559422,null
28945270825113,高志华
99754986583144,null
97868859958009,null
15742083187222,null
62472694728188,null
98237471460001,null
30419814029332,null
32258175967516,null
15825229331365,null
24970573726353,null
98431885382314,null
99591958000258,null
11035009516471,吴志华
11691393100511,null
30849492250118,null
11507286184005,null
29583236011827,null
46020224722186,周宗理
15079535379190,null
29270500171213,null
99301576138187,康颖
21893283149278,null
96132400580299,null
27525848669539,null
25139389212150,null
77062286931312,null
16574261514610,张金
32236154382424,null
15703303058191,null
41559723332388,null
28584319759655,null
24751331259142,null
15309120653416,null
26179173127827,null
22574751118750,荀元现
62742111431119,null
30081651298328,沈圣辅
18444012151798,null
29084972384051,金磊
21564197022802,null
23790721191070,胡良义
96922208098326,居小平
29043688616177,张晓斌
30220261223723,null
24816158926516,null
39566219383229,张庆
95158828234402,null
33758648817548,null
30326302712120,null
85218218172513,null
31324311167627,null
29527173015012,万谦
31652175868423,陈松彬
20143144390325,null
29042292209425,张庆才
39928963234446,null
30023553031721,刘海明
29595902987729,隋国栋
76621377917102,苏绍兴
34841025881520,null
85603179256479,null
25797076097758,祁庆
23795738992148,余永望
10148720366381,null
30416266576724,陈书艺
31142282969122,佟刚
77749115608205,null
30542317720666,王丰
32729202667231,null
30609212664680,周枫
29653201042512,null
28678520901176,李红霞
40683044911192,刘君
30078200197714,吴仕明
30096532162121,null
96044029978979,null
28790345835288,邱斌
69317720803315,何家杰
38831675762107,null
29801133827516,李春华
29175811209321,陈宜顶
11520659537152,null
15837562572853,null
25717529984295,null
29103121551894,王鹏
11220587676257,林义森
29670881481831,陈上助
32641171339131,张幼标
29787146583517,侯浩
10033790257624,null
10257177051751,null
15024219333376,null
27945177850303,张祖斌
23094891273831,吴文岳
57812910171245,null
32144851333210,蒋成
25232022850539,null
34426859510334,null
29653242418752,李龙江
21418061193291,null
31824677961517,曲新远
86654820944912,秦野
31010852570829,曹跃琼
68814058002264,张银花
97832416820223,何云义
15824562520223,null
30691183736114,null
37730626782470,刘佩
15911604243266,王元武
31126214236216,朱丹阳
29192161387017,null
28768193923317,柯细兴
29232871974242,陈初光
28798942877310,何伟
30202780336104,郑源
29685654717800,null
83627364312984,null
30948292092514,null
28813187025225,null
25577641265380,null
29317022983551,陶秀梅
51093931065977,null
31985947125215,吴云林
20692261148128,赵树卫
24533291461827,郑杰
25077782714528,null
98835466253212,null
29022461869610,刘建
11736102529067,林志坚
29066642745922,宋洁
28807211459250,李锋
32235142282919,雷勇
85371352102826,null
50654327191947,陈攀峰
43319876359104,null
33562625882525,付瑞英
52487787291869,朱琳琳
45012431787857,周爱琴
28575815994424,null
14705677908239,null
29293806139312,null
14085369938302,null
83618169142270,沈思
30273056240978,周红
94515440185475,蔡宜东
30833262112815,程彦
30116234204114,null
19548123851416,丁碧燕
31780711804310,null
32568072470819,null
11732602048356,null
50768082341567,丁国良
30287293084612,张秀丽
91906192561144,null
28792052862020,赵云华
30366283978526,姚世忠
31470110974112,曾聪
28698119902216,涂勤华
29707722622119,徐长才
13983190242255,null
29793881313687,王择青
37712375812914,null
29682632506896,李健
34623558561416,null
98571244222749,林长青
99673558000062,崔艮中
30430113618142,null
38722866286183,null
28666278267132,康占坤
39353871097151,null
60861239694271,蔡志远
11258120149298,null
30154878311180,null
28749107582554,邵海波
29537315924094,周建宇
28768259724823,刘云龙
43412524765184,null
56291159715831,邹志有
76418592181960,段文仕
10746662034434,张冬梅
28463208617335,null
22682161904926,null
42994511487148,null
74277839232534,null
32527271260526,null
10606620403298,null
97499655750993,null
99269824020374,null
24561003791115,null
63082822727186,null
92754748151842,null
99895471609367,null
21413277460737,null
60695934161242,null
14037221294471,null
11584194400801,null
29024871237410,邱国庆
48749913977739,厍孟江
28586155508264,null
11034701609023,杨序明
29391041293318,李轼
87555715354462,null
67909813721877,null
14038481559821,null
22022962621930,马路
99453122210229,荣勤
29839491473742,唐茂伟
62641152730180,王启瑶
16749316066346,null
15812134337027,null
23517162397322,null
94764747496002,null
24896756921218,null
28880432220632,刘向锋
30170171277424,王健斌
29276207492525,张中魁
29251202928768,黄大友
91090972676771,null
85332357393228,null
54442315391172,王素珍
28734341108622,null
11338675487207,null
43034633002723,周复
26888852938618,null
92201147762215,张景龙
28924719694244,null
17858435404149,贺银隆
30457491968270,云涛
39662194742264,杨皓东
30642587755104,刘瑞景
34202205117046,王昌华
32451960087141,常立
64533630255472,null
65643071018483,李鑫
29668299242812,null
28859165370543,null
84962910872177,张丽丽
63299124248124,null
31033170813322,张伟
14248285199318,null
26398702812608,傅玉清
59981476012121,null
39252432056147,王铁峰
95794083908922,null
76902291682640,鲍隆
28796581772630,杨威
99465577393620,null
30405971226121,刘文斌
76381660576128,马碧烈
54391890557301,null
34598622577422,null
28890601568128,杨德文
28783345422102,null
30017117465376,杨印江
30071229231285,杨军
29686143527683,王并举
75522328386582,张勇
29054311739141,屈玉林
22631436786264,孙勤华
17123872124013,null
83542689964238,null
56063053604210,null
23667301202886,null
11726366903890,null
20132721899322,潘年衍
53393600781209,null
28937129169295,葛敬
92091815155321,null
30851951841220,蒋立民
39682480211786,null
29705851919986,null
29462324690517,王安民
30080276538025,杨国平
28799913343270,邹海燕
32226211558473,null
83882623128731,卢国全
27352267083310,null
99251259011630,null
29686949705089,null
95461515270484,null
26463992200720,null
98601618156118,null
35518093547177,null
76998417348226,null
10130289589920,null
17758221229429,曹向东
32013331658219,null
29831238738864,null
30585746030926,null
31760053173130,王超华
33231169526329,null
11283413738024,null
20606142097263,郭新欣
10611331703812,null
31324201495224,null
30667306691316,null
10765481792893,null
73928726131438,null
28776852773313,刘严蓬
99858652637980,null
20888462661582,null
87347027571178,null
24462086223830,null
29615146079484,刘少敏
23657217194502,null
30905453276721,null
11328412456612,null
19478543118011,陈晓聪
22394122890718,朱柏钢
17095202868632,null
98839910146193,null
10068759847093,null
98652479086236,null
34607363165327,王超华
76866348172661,李翔
56825575951131,苏德阳
67787631596707,null
23772837757634,null
54213063934263,null
90431992949738,null
29684553883175,赵方莹
27022939471730,null
14060156247928,苏响
25582182594222,null
10606599945706,null
32645108658547,null
99664512933309,null
24609348964113,null
21828163195303,null
83371528700302,null
10811360292689,null
25284722278687,null
34137830288593,null
19586601398491,刘健
29297258448457,null
12943783017429,null
22000881856929,null
31665735746673,null
28171002499309,null
28290401590318,费浩
29661346225163,null
95744949472182,null
99355753830728,null
11087080237578,null
30172589212258,null
20799961995920,null
24026872972320,null
14944663726068,赵建光
30750029552646,null
30011801470729,null
28131901498119,null
20062604406578,null
34674039404052,null
10897234289940,null
23796393723807,null
24066426842208,null
15149011192431,null
22307662659731,null
13766530534478,null
23689818562527,null
31891352014192,null
23681523711650,null
11570583096212,null
33324864381131,null
99794912768112,null
20090140048426,张浩
17029507049190,孙英波
33224720315544,null
19690661737121,null
93457329758005,null
27963011386511,null
30413211760032,庞智仁
28903758545641,null
39172830970147,null
31546374311633,null
11540587918182,null
32378292288206,null
31699318097025,null
29968884331176,null
96461711785154,null
27996179546824,null
31213190328222,null
11129832721223,null
28902979211753,null
31956133073364,黄河
21781672394111,null
60106430158224,null
29674986168174,null
23226897863231,null
13872733775938,null
19556317853726,null
22180157387627,null
24080572143929,null
10015697338884,null
22902973742303,李加明
29456011614742,null
84957728758234,null
85199719825225,null
67641876423121,null
30668135231526,null
49792717171905,null
35247917371224,null
29720222711026,null
61925767741721,null
32625131733821,null
24823422617962,null
18691102023578,null
98229986051502,null
30345882181029,null
29151137353326,其他
13732019704438,null
27549322399631,null
23719186916046,null
15798268880244,孙建尧
31555523450992,null
95495019505043,null
99118426572444,null
23640414199041,null
15106113989229,null
26533260551287,null
54245011229186,null
99345935505599,蔡淳治
10616478163138,null
26528355302794,null
11312458369789,null
79473789941559,null
21463582669820,null
24147192309425,null
32342207935022,null
34187633833111,null
23781816566301,null
58301985737200,肖俊方
85052514762238,null
32165229483207,张亮
26034001132921,陈令峰
30364792010028,尹群
73653098525228,null
85391078931579,黄景洪
11340868688036,null
24436903266818,null
39912142547127,null
36129429886127,null
26456431632325,null
34789187345179,null
10661619731669,陈毓琦
18034308627638,null
11395684130645,null
35338397758127,null
90662573060496,null
28842782802131,于庆洲
30362207242292,null
32467591803720,才跃兵
93279935961497,null
61141956433743,姜礼辉
59002259673894,null
97582547852334,null
54459515981295,扈晗云
23865290490858,null
18817709709300,null
98118298398782,null
61412295143192,曹道义
99169332384133,韩志成
28805233053740,null
91881721311148,null
20592532757328,闫丽敏
62686024308317,null
94653374244266,null
38151854759077,null
21025051524320,王元荣
34523419730696,null
28603206138102,null
30457433210719,null
99001947117315,null
30394573263718,null
23895445592682,null
92731126050451,null
14170413554190,null
31023279625216,王欣
31344892709859,null
23068651762532,null
96047375948704,null
14867122034517,雷华栋
18530161109427,null
79536028192313,null
29718303909125,null
93070617786236,null
16807376273129,null
29858471118419,孙小明
32586761099528,null
76126899901584,刘洪强
31428271526224,null
23688997616360,null
25575262700510,鲍佳丽
70299314736475,null
10713163757164,何春兰
99990310404178,null
15651372099612,null
28858508094029,null
32262748186141,null
83531875161852,null
85622984073507,null
26468395819148,null
23792716542140,null
15701722896211,null
26034680347751,null
32272231653645,于建森
94471229700514,null
29677435401086,李国文
32001593539488,null
22202834988132,null
81222376549458,刘溪
92937177498680,null
30253212154428,null
15416179697827,null
19160708133129,陈海斌
23717234763237,null
89857509299467,null
25136588917370,null
26125611683624,null
10012290953854,null
10706723260300,null
67652385528863,费建
99495006798283,null
11414875894087,null
22270194499625,null
93776833940429,null
70077872161582,null
49243240547132,null
23907899172125,null
11567605847916,null
74531448440181,null
11504234830986,null
11392915628950,null
29111216205308,null
35742238314141,null
97916612358842,李昆
10657312958516,null
99471118257144,null
54488758052119,null
24549299196506,null
22791092802531,金可调
23868970819469,null
26818208021219,null
29020691963410,null
25747334613516,张志勇
10843726917432,null
85200031080535,null
92275515191150,null
28782106753417,null
29000537376189,苗利勇
28809719046275,王卫东
28890120374477,肖传明
38141419836507,null
83995011852213,曾烨
28571213219530,null
32396642054220,刘向东
29472478910557,崔成哲
30500072668881,张英杰
29397442014721,null
29064402026331,null
28712833915255,付屹东
40622054162112,null
98623922846174,陈新
17918272994020,null
25600462178151,null
29113716391402,null
18378254360625,null
17712732213352,null
63601292488623,null
65852310773155,null
25187911368628,王和平
65481785175209,郭道胜
14624171976816,宫丽梅
50072926410203,沈志刚
28781511811251,徐兵
32544141890926,沈承建
28833452323722,朱鹏播
41992803516294,null
28918307825727,程宏
26788042741218,杜进平
30333278962815,郭晓光
23056601386862,null
67586520255572,林卫铭
85612603348310,杨斌
29786333181332,null
58333430112155,袁野
23823148199424,null
30904522039119,null
99302156676167,魏勇
91206830934206,null
30027901186604,陈婧
31457329832219,尚志强
32566891128719,王琦凡
32176281620462,陶燕萍
19675891776130,余鹏
24535295676814,null
77611597775308,李志
29099609353812,null
35931435058284,null
32201992265192,邵乐夏
56753226319320,null
29028283646013,梁天颢
99693489065454,郭建生
30314232418248,null
83492424897206,蒋治宇
15773835062186,张孝军
67071358309982,叶顺生
29367561368821,null
30406312022822,李季秀
98662776105248,刘华松
26054691971321,null
29256651962311,null
31407633719106,null
78851213516235,null
22694477704138,杨春丽
29733358272282,null
15948289202516,null
29656242368232,null
28732156630923,蔡训祥
30456152352119,null
75832623424249,null
55060318260315,田永奎
32343219465815,null
98542130024129,阚志东
14012316617418,null
29016283348626,徐立新
28964511908112,null
84977421525155,李响
29787312403359,董少卿
13887407033820,null
29401379420807,杨仕文
96875739377435,叶建统
67542941332290,谭胜华
28804673137630,null
38902112114176,李宁华
31940478214131,null
16413031678330,刘勇杰
62919273290982,null
26068173926448,null
29690476880814,林广茂
28751484451721,刘严蓬
99171277560390,单志勇
30842372511115,贾一凡
29356381257330,null
24681192102220,null
31338843229811,null
84851902711028,null
28687882022450,王云生
30912261054120,何志青
94056992859065,null
18257057987882,董琎玉
29689011847380,武斌
32154679357860,null
29039228136377,任晓更
36344418787179,null
97121129610108,null
28938779017923,null
28682793142910,null
31235712320419,邓雪凯
10978996645677,null
52881272698593,null
83461061524820,桑华春
31927138823223,null
99593496692335,王守罡
24030286182013,胡兴胜
98805412852222,马士忠
29727024420949,null
30144322289930,李文东
83177024320143,施沈华
31782411943919,盛斌
28660381840811,陈敬红
30184981758710,吴吕梁
43852423732715,陈宏德
29152191178113,null
28685921886050,于晓明
83708791051826,贺杰
22929082266429,洪峰
62731979893108,null
70702578400310,null
23172295854623,刘丽莉
29654327102377,陈彦
24702607584264,null
24629126419224,null
30660645265303,米旺
28854248967724,王伟华
24796900493988,张平
30257221041653,null
89947111904475,郑承煜
29711087944724,苏海峥
64213138380230,null
21893981785628,刘旸
54462194952143,田雨禾
30726196189493,廖厚伍
20383811917899,null
29094693022631,null
29622384503246,陈晓东
97720483502203,null
29096136146126,null
85612425697193,null
24321610035293,null
18376789882267,null
98030047577108,李军
31410303428453,null
16141605738314,null
56742428753230,null
50096922249247,null
25028963113530,null
93713217247769,null
29161801067974,null
34988386085004,null
99616985179373,null
15724861774158,null
86382495218100,null
33443111026492,陈永兴
22216781294411,袁康健
11412894928839,null
24781709572931,null
30701262390911,刘坤
28656458008419,null
50417491981746,null
72159115755303,null
24578952641910,null
33243228434778,null
26453566621365,null
89735744352615,null
49631999084284,null
17837187715688,null
31347672464119,null
96845356026034,郜刚
92683874679514,null
99138508635614,null
11463923100420,null
11035448040382,null
34476001899026,null
27084626014781,null
26218554393138,null
24396202085018,null
99482787419209,陆杨
33012911914209,null
32587903981735,null
14079731458013,吴香娟
99380770860328,null
33040539714471,null
33423635516574,null
83051510274142,null
71306523006135,null
68662883160912,王涛
28177831301255,喻再知
99774136872602,null
11016895579494,null
21686164610669,null
32410122774525,赖松生
31834658482162,陈育旋
15863802291022,陈凯
61387013947235,null
64742623375640,null
27794444467180,null
33346822063619,王渊
32591324425543,何冠琼
28848318524926,null
28711211819756,null
65201919535286,null
78306418286225,吴端
28689002447240,null
29796043254820,null
96868725153425,null
28717561202189,梁栢强
48181422515435,null
32263752447011,杨腾霄
69191058923279,null
84991730510299,null
32747353722566,曲杰
23256135421815,null
32317309300142,null
93358871304449,null
99111194925137,null
29989706963269,刘爱娣
98041013472147,null
29596472196966,林美香
70368115071114,null
17590261650723,null
28914169255614,null
14144062436421,null
28945575355452,彭生平
85009004353076,null
41111530314160,崔玉峰
61597811630194,null
18271116000180,null
30343842687747,null
98633530692144,许婕
34788632284199,王宇
31346252686130,朱恩灿
27189210232228,陈艳辉
90689619331307,沈伟强
29670981472021,俞勇军
53576241892468,null
30538229820512,null
30228757380284,null
28917898262300,张丹丹
65212031615217,张新民
83703831087793,翟军
34245810185640,苑永涛
78156625878134,null
35408720765457,null
10928377977300,null
29037184580423,唐海霞
23114206343435,null
47008558041943,高黄清
29564352192186,null
39553174162253,null
29257283718527,韩忠朝
91626554197338,null
32130105076026,丁卫军
30382192652913,贺晓龙
29080621741709,袁云娥
28685891784020,张宝玲
31644184731524,null
28680671819231,李卓
80238627871282,null
28678123622427,null
28682644969440,null
28680941212221,null
25797972658228,null
26068403411128,null
29751924623067,null
11257802886911,null
28702253775643,李卓
33216091720993,null
15743248697725,null
28687726337300,财政部
28696771613729,null
29577828211577,null
36516155582668,null
28626923270229,null
28683666725524,财政部
28666185504016,李少夫
28689813208010,null
28616786163149,null
29703452292653,null
30152312298284,null
29106251711064,null
28767012922049,null
29020253776627,null
29828752188949,null
35438951013511,null
31905128114393,null
28606771016219,null
24742987945284,null
28664292380712,李卓
28671937222957,李少夫
83952532550804,null
15994672686313,财政部
96974572354197,null
28690290810825,李少夫
70322430450307,null
29776237010094,null
72662014817012,null
30522670616974,null
96058551574033,null
11671642862522,卢洪灿
32125111248415,null
31347245607529,null
26479117629105,null
32103651120011,李卓
28690275747892,null
31455991731719,null
28686282229922,李卓
30697139690512,null
28676206903744,null
16877507164236,null
31391832906621,张超
28666292478172,null
99027577230934,李卓
28626801531729,李少夫
30215168405110,null
28680961045621,null
72142036172229,法人股
28694324305626,null
30580449900466,null
10059031674040,null
68082026542173,null
29689975561270,null
76126134200431,个人股
83645280412357,null
32751140982826,null
31855535510785,null
32783342064499,null
79362988120151,null
11703482998211,null
29703939663877,null
15641353262393,梁建业
28677291845632,null
15016531221279,null
82733149850690,null
30096131638225,null
17032861855731,其实
78322622028516,null
89437621345122,null
29676147198053,null
38456211024119,null
32125021864217,null
28690703006236,null
31712886312716,null
32819218109178,null
89644315510095,null
30172092020928,null
34917533140327,null
30752140088132,null
31393892990631,null
80258110551512,null
28696252562612,null
30401516844872,null
31422943123263,null
54751053983473,null
31211757321554,null
55752606610584,null
99741031626080,null
11588242518113,王德友
69636330286217,null
28680962768411,null
31053705567140,null
22894481944058,null
97118722001302,null
29626930218309,null
62571104951312,null
29505932413499,null
95543967452696,null
32408716521572,null
90532095978384,null
78065822367293,null
31779126308315,常宏宇
31992093339650,王琦
31698155011113,null
32111131944525,null
27899073956198,null
24086721134628,李少夫
28680885535611,null
29829458823194,null
32695118940221,null
31704285425347,王琦
28685196707524,null
27657242802823,null
31114091838230,null
32991182484416,null
35415710301268,其他
20367111664651,null
31681143961026,null
30150630513553,null
30920476824285,null
31323311266115,null
31103235444165,null
28778207761484,null
29689117903326,null
31326226866715,null
30041099145228,null
28687170404416,null
32417321399326,null
69867923172046,null
30319132908623,null
29342291259717,null
44725926191524,null
82737513443154,null
30640480095145,null
76302462552288,null
31786287501725,null
93512133525581,null
76033175772209,null
74294329188695,null
32175310313313,null
29552298715725,null
61892496781162,null
29707981340719,null
82712192862267,null
33656671511317,null
83701193678237,null
65343476011009,null
98830365949243,null
29707554282633,null
79756611801183,null
30327311411244,null
19963181364144,null
39972919589180,null
70313163045320,H股
92108926793666,null
51487117051226,null
30062561080961,null
16034333245511,null
28646711226829,null
48072647097103,null
31832221717215,null
95492467440047,崔靖
66949730314317,null
31445322946658,null
29335932113022,null
62331262190121,null
32659155584723,null
48222690666210,李卓
68882422319155,null
29155041575191,财政部
64620819842235,null
28701622835711,null
30081000591928,null
81172185795166,null
28862912293521,null
83187310045223,null
32512274785985,null
29474512707019,null
60996783712064,关永贤
30953228662013,null
78965920017183,法人股
14614165929816,null
57215028181137,null
0,null
83955115992617,null
29701318119926,null
29001705599138,null
16611911227192,null
66092012689214,null
31275102135430,梁建业
43991232691169,null
66391151632112,null
15956322509529,周仁瑀
31008202939725,null
86434159181022,null
29882014487261,null
32009972350182,null
31593573628314,null
70138877852020,null
51761001007949,null
78740413247575,null
73126228577654,null
32374521015338,null
91180713664881,陈斌
10863578338467,null
49761831134161,null
15954507166218,null
10055174907008,杨飞
68424918694317,null
31102371329928,null
70101602122862,null
99491019743294,null
30182521988848,null
70427006163160,null
31762202621811,于泽国
29703853023377,null
10820313655818,法人股
30365327168215,null
31027241885316,王薇
28660772067021,null
37061830003308,王薇
56531962286481,null
29251200415825,null
83853500423117,null
94074616842886,null
32167661231811,法人股
78215113472173,null
65115824036165,陈穗强
29799581935730,null
31885361716781,法人股
20592511449828,郑宇
83591849524218,null
30798022819808,null
28687116696684,财政部
68141490715492,null
32511244682815,null
43143020471307,财政部
82730312347184,null
67261597078231,null
54892264892293,null
10473962911410,杨捷
29935270588423,null
85822872407119,null
69251988757230,null
70361497314197,null
31898032126219,null
68433683851469,null
24631272412567,null
83812845961120,null
30182086308182,null
33166416344167,唐天树
10361021329091,null
47981911451267,null
32314201734618,null
29318963138512,null
95437493963018,null
29202971415749,null
54910414870168,null
53780725034126,null
28696736441099,null
31700622538320,null
30474315173915,null
16925286424524,null
29913294003140,null
25555201225119,李少夫
26812135094177,null
23236402608521,null
28380419536523,文剑平
15891270118226,null
29617256535924,沈锦华
29781002343831,张敬红
30401633587164,null
42072763966271,null
89926873302598,null
39311104168812,null
85686930473108,null
44042865836411,null
82725971603265,null
65751918895256,杨捷
32234121350225,null
29023781872720,null
30360209453922,杨二喜
59431708755319,null
73027998702030,张世居
78731255266321,null
55103028557627,null
29570749083030,null
79221337183272,傅亭昕
28727295573149,null
78762100710948,null
30104830437520,陈伟华
83298316175863,null
80228616547313,null
30239262687816,null
32032670145204,null
56788626016438,null
47812977212295,null
68315926637276,null
28671959871405,null
60866323750154,null
56852988311234,null
97891749637195,null
29247571116030,null
56346153241506,null
34457671767750,金虹
31909381375919,null
56642669249064,null
38576813942148,null
31414263004227,null
75802819456123,null
72754900082538,郑丽琴
29733348923325,null
29666792689639,null
31619532997310,null
32399143638786,赖荣跃
81136147812106,null
45159719792206,徐云舟
28686751869169,李卓
83612986802737,null
30124372733140,null
31798474991058,null
51566758181278,null
63701921775225,null
76523922255235,null
78645527488123,null
73439410980264,null
43714140112740,null
32379622428244,null
30236442406209,张艳玲
28674201615172,null
26747221955519,李倩
10035294586824,null
29686298711362,null
30346721868930,null
28856198024296,王春刚
28702538916145,null
79303162050680,null
33345528344299,张剑
32551038904781,null
83755427524155,null
31822007870113,null
29022401230560,null
31518463976120,null
32506572152818,null
30734106897594,黄金奎
28863166047223,单庆林
61907222243164,null
31759212137391,null
28696906316189,杨捷
77786268167131,null
60491185247201,null
52656149362387,null
76766028850146,null
18009111760329,null
25170143557997,null
74591636723117,null
70290422811265,null
28940175132113,null
32558112510016,null
29097210915724,null
42421382816232,null
89237317882492,null
16292889507206,null
28090411808629,null
29882266740923,null
30383744402204,null
13894613186559,null
10873414541382,null
83804818783253,null
26462922571220,null
29607293562827,null
65697142981570,null
19348126915014,null
48382613568226,钱进
28680681760330,null
32287216158015,null
33306426707120,李卓
28666309834315,null
30206742958195,null
29768742213826,null
29581168295986,null
60135319224245,陈穗强
30673837666639,李盛民
30782264203135,null
67291368323129,null
89727463692442,null
58097874921887,财政部
30014605947109,null
10793920324947,null
30790613917150,null
70029195813196,null
28680701510231,null
30482313101632,null
51275919397666,null
31647169451321,梁建业
99131026085325,null
47961211806956,null
66642975566312,null
75322127096860,null
92734617020294,null
30516423150728,null
17072626378116,金虹
19302018281260,null
29569242206141,null
81449964124671,null
31654465749164,null
23636828576619,刘洪女
53842586492133,null
30653335114612,null
39202794862317,null
85412463471966,null
30437001937820,null
37400703029947,林汉辉
82765713743015,null
97717070252377,彭兵
85781392859710,null
31384354699248,null
63163137642250,null
76281380276487,乔俊良
29571134851023,null
32058695765926,null
55584873461989,null
31017120015149,null
74749710759255,null
31292199541812,null
29793053233360,null
84492068259267,null
76451209830109,null
30477182159956,null
31205302250615,null
73763802161257,null
22155712599812,null
30811941957290,刘洪女
10101836160519,刘苗
28666586845774,null
83892418412169,万忠波
30041271805818,null
29277802570252,null
63292818857320,null
55010973392795,null
31399316328046,null
21649241217812,王军
24630092765691,刘靖基
32238891863529,null
97892224727530,null
56381613365645,null
31550398310176,null
95184002228595,null
75011334991251,张丽英
32061161982968,null
29798050070990,null
28782361538912,法人股
61599476231415,null
16490311391728,null
59054128047185,null
72739619141123,法人股
33126616454167,null
11095726278542,null
30014453115796,null
54372503290172,null
32189105288164,熊勇
28715250075913,张金良
30907298063014,王琦
29808128828796,null
50235923966206,null
81611622175316,null
37120082165617,null
11039290374741,null
12363861080479,null
30130271626436,null
29131121689419,null
30241792011131,耿建明
10801428345299,H股
28995302725627,null
28673261792812,null
31837303229011,null
71282872990200,null
15277371826022,null
29367123197924,null
34556514746168,null
26988602979198,null
32447611694930,常广义
19257731441681,null
29781594132901,null
72274667351319,null
30844386009031,null
23683815329220,null
26684847360840,null
14035712889311,null
83743418411713,null
56543320826907,null
13988382131744,null
49151779631174,null
20546318298926,null
20347313799717,null
11708151897611,卢洪灿
30298185331114,null
31836321074711,null
28979565921572,null
98837753577125,徐卫平
31631265602813,null
30586810945228,李静
10080768843383,null
72743162809289,null
30937183924326,null
31204358761177,史钰文
78058917195801,null
35805215912514,黄宁波
30570082558021,null
64880916225234,null
29076182236257,null
59482791558341,null
32536711880336,袁宗顺
43863149031181,金虹
24885238610454,null
30831332503521,null
25373739981569,null
10191202646174,null
93161116008093,null
46270123418336,null
57042012618173,null
66261518814033,null
73210677751889,null
13975280809725,null
31197415346406,null
31134764294860,陈斌
11912022175729,null
29115198341803,崔建强
74645832392206,null
71403025136841,潘亮
29772210994465,null
94054029613073,杨启雄
78341667681238,陈孝义
20370124970336,null
13254985202169,null
32194028148200,null
29074171231245,null
31435472061518,王琦
29536234162323,null
53012382965799,钟少南
78116314293134,崔建强
28087286968213,马伟强
30986625047134,null
54752000451179,null
52761929887323,null
32044171571112,冯双鱼
30677632400228,户桂华
23495862308218,null
81270828853185,null
35792643783102,刘靖基
65207819140146,null
28808611325329,null
31582248686414,null
29082226209415,null
32674255579109,冯华林
85688692206491,null
31982498196163,null
54992532105113,null
31584647201587,null
47222685642130,null
71622999362218,null
20805452454122,null
31235898156105,林雪娇
50422151855313,null
22051692870822,null
99384298064125,null
30670738941272,null
10028735372126,null
66803431190843,null
30747148802682,null
98209869097942,null
68064229303225,null
83919273913088,null
36071779711653,朱凤廉
23745347782144,null
69492381879149,null
25396715581225,null
30255293252065,卜昭路
69111754015319,null
52621756591932,null
29748247564324,null
31658152403111,null
79318219831274,null
31596773064318,null
32330202222832,H股
17601707735395,冯宗连
60321597421878,方继方
29145911967711,null
44041843425904,null
29026672139430,null
38394122030178,null
29796663208120,null
79554918811266,null
50407312943556,null
82161610890980,null
29886262734823,职工
16085676571302,null
70731245467301,null
29788122904665,周明瑞
80311957362288,邢存刚
64082630939246,顾玉莲
32540095443171,null
30210741645921,孙永斌
40125900130864,麦凯常
32411238513914,null
32715205507935,null
29426420683396,null
83083254780820,null
70493516887276,null
95776542264728,杨战会
77992225310342,null
60508119159152,null
14738188821247,null
81622216229333,null
61351677242179,null
96820768701645,顾卫东
62052650108092,null
28737382375279,null
97844896702296,null
29162991644693,null
72185225044305,张灵省
63522030362111,null
98584038929407,何文钜
30130123140925,null
30492921280021,向军
39702559773187,null
18140530215211,null
16423271577300,null
29857414457172,康建福
59071328907152,曹其考
29886367594557,郑金城
30083575655262,null
71072365766180,null
33898884826099,法人股
21353843164830,null
54832150728259,null
29275801182832,null
21393097544118,null
16637288910587,曾鸿
30376531984430,null
30561011411429,null
31229798220181,孙陶然
40416922262477,null
39712293663327,null
30558601707440,null
31283323475638,郝佳佳
30150684722301,刘泽英
32570451960796,null
21074100168444,延颖
78078823182135,null
27899394926258,null
31554427670204,顾家宽
40694738403176,null
45842201101220,陈伟华
10922198916998,null
75933529382608,null
10215500564756,null
16483432585830,李卓
21707951408319,延颖
68420664831536,null
28090862961368,null
32364299048026,null
51983331470127,null
21923170585617,null
29243031028747,景宇峰
99220211381470,null
99705360267497,null
60881023890298,李永君
45951019423725,null
15906832329429,null
29418262185121,李贵福
78580307022324,程时锂
67367128962215,null
31788091112139,null
65858931182217,null
29598321699176,null
29579048757660,null
79227124192604,null
51306928234185,null
30232071430859,梁红俊
89937619031272,null
79683710828127,叶青
16095781785822,其他
30729146741213,张超
53497026431206,null
73441563409317,null
51158075123253,null
31188250167613,王琦
47202687282761,文秀
58900145682978,null
30206280677116,白明菲
28963510126255,崔靖
99042910141696,null
29690988358191,null
24434926785619,null
96447398382035,null
46911857382869,null
83232142546297,付文刚
37223157550195,戴利
53902229682326,null
75703162714139,null
30801586384230,向军
29047290354524,null
31576753078098,法人股
46551986324110,null
48294318604137,范德龙
30396372402120,辛军章
51851623327546,曾麟翔
30832217486713,杜凤岩
53988821329277,null
31052267236125,张凌欣
60860012017906,法人股
30405322605428,黄琛
28745316923715,null
72941276989291,王华
81615830232379,null
56980126701278,null
24116319521128,null
20741732239311,null
59422161329292,null
66442020099260,汪卫东
71590330672154,null
29558101512732,null
60953136454829,法人股
29101180254316,null
74917008631420,null
29595171509822,张法俊
10904127245726,null
43794015592682,孙献军
32477890429976,null
28190802253118,null
30238142354224,null
47850111158119,null
28790290612126,焦常林
29100276255916,null
29973255892781,null
55981347508713,null
79156244362058,null
43897418537316,null
37100522216217,null
71928919969243,null
73311468450149,null
82717396901477,null
11696461243341,魏锡若
37221996717636,魏桂芳
19015925430202,null
83811721778931,null
16142864218131,null
17078297017914,null
18645581101220,null
29282110618677,null
29525592812919,于兴海
25587021877148,null
11662312162013,尹春
29332229677126,null
35324516866828,张利荣
29783343030892,null
78113106322279,null
96821774323135,李少夫
31730971624230,null
30346303129710,吕光辉
31807252701012,null
19580619019801,浣美兰
52921846168310,null
28428111381911,null
28936677133626,null
31124611265310,null
10924571403211,null
31053083003520,财政部
30062531749731,null
21633145368813,null
30900368219092,null
35693135319193,null
29145592793621,梁红俊
29209811659062,史钰文
29393141305119,程延虎
68313920669297,null
45688521651227,null
26157996338875,null
42567212372299,null
96195603295931,张敬红
29620235566282,null
27947919121324,刘尚
36471514960102,王土火
11852322515468,胡栋
29911072078430,null
14287232475132,null
16052391063014,null
57061251200170,魏炯
98384223090323,李大剑
89827021357292,null
82038821616225,刘吉民
93128834765982,null
29447154681515,null
10183047450876,杨慧新
32920513234298,马逸夫
30368841902381,null
29353282449787,张振军
29680793081911,崔建强
17885522553693,null
10838174133116,null
32441157699026,null
80002441720671,null
31525297692814,null
20452052879248,null
11736331989930,胡显勋
31995481537311,null
30700245638312,null
68082818094116,null
48131634115585,顾家宽
30226911720453,null
29026166806817,null
15966455902759,曾鸿
60706624161294,null
32341872364531,null
97792100532087,陈豪
31992608028253,null
37851818953984,null
83821242965208,秦献英
29695209502742,null
21248431015270,朱跃强
29110701538262,李如春
16523231579743,null
70186917655174,null
29088246262825,null
28711958502731,null
45241645691430,薛东兴
28680231877042,高士勇
29867183038515,张世海
79743882042497,null
29028288306303,null
29025672798922,null
30398206447024,null
30578161889965,null
30579484682433,null
32605401447017,null
29751026848351,null
28757129615149,null
28808192804729,null
52371200856034,null
97209028030192,焦常林
52551972059471,曾志扬
52902571863282,null
35228791432517,null
21684126833224,宋秀霞
74002830213238,吴新明
82842905095297,null
58832981111114,null
55766312237407,null
34132221757208,null
55544902651521,null
71023255293321,null
31895151493512,null
84471486972136,null
30982476010264,王定平
29121137353716,null
10615561921830,null
34783069302315,吴为忠
19551241792244,null
71661593517602,null
52997045851922,范忠明
31544583699764,朱凤廉
66502766340321,null
29622126595214,姚庆
69670219882255,自然人
26830368170323,刘运年
31561052785421,null
38201291820457,王小丁
53106637462757,马艳华
31585324051223,null
29367672861921,吴旭红
59541923084187,null
29805204022426,王轶
77411064015522,null
66872228721515,null
54760421921177,王德平
43698714927309,郭建森
76601798709177,null
54201217825264,null
29627444852603,null
35713147040382,冯宗连
30585045888211,李倩
34017522744717,胡栋
29844213024647,null
17922383811874,李超琼
19594146067914,null
56526421561588,null
98982901612746,刘庆田
69521551957220,null
46563243619835,薛学
21191143157277,null
75472566397637,自然人
77831911042297,null
74181174372375,null
28788369170402,王军悌
28798351479110,null
30532124521822,王桂芬
73520619014843,陈爱丽
31649430001462,李刚
29664159592297,null
47292981818641,null
11511297002627,戎国亭
45751853789263,null
57596720263918,null
82851885221176,null
31383203616622,张善禹
79163095896210,null
61671664318733,null
19867196435290,刘小铁
31513724187242,null
30348940308556,赵严宏
30194449024200,张菲
36621229490195,李曙军
30093103015606,null
37500922404227,鲍伟莉
28986304131316,郭俊
31725248541512,null
30341206396302,null
55321927207252,null
41623094860232,null
29971109176535,null
28656805649269,null
17298001815289,何玟东
33423444538044,王树伟
50035167241511,null
21333591144319,null
69302749885220,王华
29115981918621,常兆贤
81681277230319,林华森
30425616174015,崔建强
81682720325323,null
20767331516606,陈磊
61737523217157,朱明浩
29550307301327,null
31873128937184,null
94381296452137,付佳佳
29826411316922,周明瑞
30962658520385,李艳玲
29272183338909,null
29092346826977,王广跃
83841019230304,null
58811116001849,null
69945616890284,张红伟
39021873186144,20
29802315824817,张冰
59402496391630,张丽英
51980820182778,许林
76997527091798,null
31422223774945,王妍
28909031332919,张波
30187520253204,赵严宏
76973025414123,李玉芝
21701541168131,null
38411745363317,118
90599274799181,何清忠
68703164729473,null
47041919945176,法人股
37541068105101,null
29611143263418,李忠国
29753437967685,157
31536827600118,null
14352224982224,马秀春
81771321332119,null
82772499249167,张承伦
52873512385347,null
60192649994981,null
63381710431242,冯寒
94193096631948,null
14513171082128,翁连刚
21172516117397,null
62712962481148,null
76683459702353,李安珏
30513391090817,null
29895442016822,张世海
72281716154236,廖桥生
50953114100263,null
65962165181340,null
19060691731439,个人股
59072375023404,null
49653610276246,李臣霞
39702522718557,null
71382076023230,null
21430095427272,宋广辉
66351729227120,null
32006174721732,王宇星
39312371680327,姜丹
28794371876212,null
29152604550286,null
68734613485304,null
45989693461856,薛东兴
29609291152932,夏重阳
64191171813302,null
31558421546480,焦景君
29787142073517,null
59253151682828,null
28690224948811,null
29341283598324,师伟东
32284440350224,马天生
29610291161822,王雅
20916202190845,null
31001202941818,null
24686958307288,null
28795044712190,刘志平
76583110781153,null
76085292271214,null
21695252084242,null
88906016830232,王杰英
66048746192959,null
20914142280510,null
34142486698122,钟耀灿
31305286938716,null
66526307253042,null
29241371500020,孙兴波
52077867193594,朱惠健
64032238637158,null
74817822982276,null
75811293219542,null
31212756137171,贾佳
32237001168329,null
15461138417594,null
99357148079666,null
30139672764831,温志花
68541016467063,杨春书
55431031627394,杨佳鑫
29416264000327,null
71412279175568,null
73380140772313,null
32014801171119,null
77524822185123,null
31594353310856,张栋
83397816433774,null
62191721098207,null
21150246477017,null
70227321549183,-
29111271906154,孙向东
71522023549105,null
63576112250502,null
29912721717520,null
59762344259291,null
67266229756295,null
70077630566275,林德勇
31548840640614,null
19577249826516,吴小飞
22694461923718,吴丹荷
72436555112617,陈骏超
30495333527153,赵保山
31078269429213,null
81066227553133,翟纪伟
21640942433631,时圣波
20650719019301,null
66671895863128,null
38311773952177,李明中
29490125315623,null
45325221913307,null
21044623220181,张咏梅
96277445548077,孔繁海
95774038933382,null
11243216292514,null
30782336856803,杨文安
31450932206091,李春香
28858456467249,null
50422192051123,null
46747105391572,null
74822931681167,null
78855662821213,李思南
82841322902298,null
29778155581223,耿建明
29526150794926,王国芹
32508582825730,法人股
82021036776176,null
58876320999247,null
65443084351319,944
56332787712290,石全金
42648822849287,敬祥友
31623316395115,null
15810845687251,李香强
62112051031159,null
28862548890464,刘占龙
35722044941542,null
26188125968138,null
28511177870242,null
38811762094267,null
77851524618175,方兴友
59624295292835,石小汝
14363852010768,张凌欣
75077732251465,朱桂萍
67133181772184,null
30100261270824,null
64660837101464,null
65973419441686,null
64761819860319,null
67763416280254,null
31556131987535,刘洪女
80129422611155,章国成
51831474563106,null
30434723459223,徐峰
30085189883723,徐辉
76991245510092,安信民
16466200097787,石建华
16393239484617,null
29529412279131,王战伟
30151575252574,null
78182336117119,张启荣
21207461447905,null
11706126600980,null
65351230593324,null
68572566717713,廖海成
29371533207474,王玉柳
53741989489153,null
30249173350114,杨波
17464762793667,null
30314292452023,张冬
32657152661228,李建武
32092177758352,王霖
55682516819984,何雪根
20842431974222,高忠民
63052043891199,null
83861410238701,刘国军
32564542902219,朱立民
30564601538139,null
82563200112139,安信民
49181829815485,null
29852457502122,null
22976254695127,邱顺南
21771257165843,李友山
15054214051757,null
59090033931197,张卓
19681316476122,何小平
99814741139135,闫丽捧
30673621552319,胡栋
31598127039332,null
29511091572818,null
89280754579824,null
29571216502270,康婷
17861289675418,null
76423716859123,吴恒庆
38687629124268,江曼
36364965761018,周华图
30071251580228,张银政
30751346660122,杨瑞红
34839892855668,null
53246708175364,蔡本文
19683274913026,null
20839120224827,null
64512196762309,郁国秀
29791997904548,null
16675777434210,集体
29040321247626,何忠义
53052050955622,赖大军
28989161709429,康婷
30930582905218,史巧华
28753342941652,李伟兵
19577232705147,廖连清
16745862174144,null
21253102889823,王立国
34898828040119,20
32526292468118,null
61117067952684,null
21509331213311,安信民
30103983730177,null
29316942461622,null
30070112107874,钱业银
79499512872234,null
25717020211308,null
31411233165023,null
29885113022816,卢春生
81462573083199,唐健辉
32115392253017,关彦斌
60351206737232,null
32526134615424,虞波等
70413106122145,徐国庆
33486976823121,20
30233641764658,null
29891469292283,null
32239176794189,黄宁波
82278432739173,张峰
30336003028530,null
30688113998685,冯双鱼
30105185444922,null
49885563742548,薛学
31341804351771,null
82511496145751,null
34551805695904,null
32703201088521,null
78754238198932,null
16036169316616,徐延平
97885844831024,null
30972071351130,呙中明
31099299906613,null
21160195695013,null
54669931888315,王方兴
82795753471425,翟纪伟
79085259482304,978
21805451505220,付海慧
32017254775219,null
29529002606341,null
30447192719020,武伟丽
31293186429778,张善禹
16002038050217,周效财
30142821195328,梁玉堂
14318312501212,null
28792552691193,null
32615684960167,张凌欣
29803622762810,null
16293106540826,null
29545231892346,null
76691321149294,null
50852609295233,赵义德
35790332507200,法人股
68171847904211,方冰
71514112016296,null
37910813021127,null
63318317702286,null
45022210465889,null
99344806723267,侯婉蕊
73522678426022,null
65203121099271,null
79771080658202,自然人
14410169712526,null
82031063680186,冯启会
92803094352156,null
90643177672634,曾瑞锋
42866310436186,杜月明
30248761578611,null
76605610974916,张连娣
23295152514198,孔茜茜
30021756541668,赵保山
53020476233824,null
29676332799629,王玉
31655065022163,冯双鱼
78765515733483,null
62273658102440,null
31062319565426,null
21248131005120,杨翠红
28979269622414,null
30172072091238,杨延斌
30905539808109,王鹏宇
11162265738318,法人股
90837601341537,安晓广
33162059613248,null
41354995212211,刘洪女
66911577691773,null
31386732869130,张世海
44062922096259,刘国民
72639015637113,null
28719217388214,127
29090428263685,null
31445942745798,null
71503112348131,邢存刚
61904639298062,null
25599094107611,张凌欣
16774327002416,张伟阳
30344241948018,null
31951167369432,孟辰星
79560611241104,童慎华
18157834515213,162
55417687107134,null
56891028922176,敬涛
32760938301150,null
97891226717200,null
17526150890336,刘佳齐
83953115823184,延颖
16706123172411,曾鸿
30718324582476,季建明
48922011351776,null
74191829058183,朱鼎和
31772206057123,null
82561118343113,王文莉
38321712464517,null
78911105683311,null
44111643188123,null
30155950888293,null
45131575112590,高翔
97837820461273,null
27799581625028,盛培荣
31357115860015,null
82491062341217,邵菁
99612479562186,张敬红
29698209491832,null
29430087082292,肖作平
37172031662188,null
29175211372025,null
76189941343245,null
10629455374784,张婷婷
82720025386292,null
52942326585131,null
16049796483323,王春霞
21461851806330,秦风军
82806129730165,null
31433253402353,凌光武
28924277860123,卢雷生
37314218110888,null
30236311098113,骈新顺
22194923207418,null
29892165464347,null
29951477618183,赵仁成
29366259770416,null
18140661471131,林资民
16096765054257,null
32618129892075,null
35269220312514,梁涛
29822218353234,null
29563118743655,null
28806156120616,null
29569472335831,null
28390431790828,null
58222903915164,null
28932274409113,null
10166819924122,余勇
30105710726866,null
29731166118516,null
38586210568388,null
21315239870826,null
44978023905876,周丽茹
28827170822126,null
46709720369257,null
20986571185232,null
72418746941365,自然人
21022501909320,null
19589275606617,null
30113442397537,冯双鱼
15512376882185,null
67169849173763,马行洲
29771152490183,魏树军
26598765025128,null
29579088333291,王海君
29572953043840,许海芳
24496936491618,皮福全
29491169848538,null
21045161747226,null
21202132858914,崔建强
28832147024676,null
95144941970031,卢义贞
49431502408172,null
99501224220259,null
29023236147216,null
16471332773106,任书生
57162523838315,胡蓉
72992804921289,null
30858056012432,李伟
21241881899812,null
76903010672227,null
27080357276955,张学龙
92817098168646,null
28803168156923,null
39812610279197,吕忠丽
29917687181945,null
47274913933257,null
40691864488934,null
30381503396302,null
77439376130661,周兴良
30043628490240,吴金玲
71552187359298,null
34841322113195,null
28893148730414,郎亚东
31626181097225,曹滨顺
29202842878932,李彦冰
85503271534260,戎艳琳
11641661619722,null
31788592835428,池红淑
82022426322687,张二干
14641261967512,孙启超
16870108178116,曹灵元
10861762381229,null
29569057631691,null
70079222847115,null
14376091153323,null
30982375194966,吕佳琪
16952196742727,null
14545821920959,张凌欣
63606024632837,null
27135492127640,王小琴
32990783167318,孙成东
31711221672111,null
96525905006508,魏碧海
21030422011019,null
56891396111524,null
53198624644265,沈珺
32327288496224,郑孝巍
29684691344280,null
60996366552984,林志兵
19560523912259,null
50639013911090,null
29533190461017,徐荣
29679843089663,周文军
42446419364717,null
32441313677833,陈晓
14414224761188,冯双鱼
29948274172613,梁贵英
96881235457540,null
15699466553161,null
82511234630990,null
25249144718377,null
37991531624756,null
45372970329943,何立群
52512782017921,null
30255239366524,null
23695551258428,98
30109980487423,万忠波
29912523084022,null
78841218673778,null
41023431174910,黄缨
31679074173179,焉博
29802755085285,null
37810831203197,张善禹
32388727068215,null
19551290903303,null
95276178295639,null
26288062783828,燕发旺
16695881128211,刘刚
28889402725522,其他
14963212486918,null
54053030333146,杨小东
25987946287178,null
61581190152299,骆庆林
16580813217691,null
98441714330422,法人股
51081968111273,null
25587946939198,null
32910412082928,法人股
35201598994262,null
79952021062308,黄平
19472515465275,null
61352041137112,null
54549430809317,null
32632295647413,法人股
39171859536366,null
55282039463181,null
38501451502617,张冰
75526670681737,null
30870392019711,null
29208243424585,武伟丽
69752513906196,孙坚
31659477615300,null
82561040189319,null
26532796791356,吴海霞
64692349400601,null
31758841332688,null
68762448249173,陈婷
83866024303265,吴小飞
66202469367438,null
30273752745218,崔冬梅
29643916457134,股东
34021831343318,李夏梦
65661880564298,null
31604139947662,null
72180212695195,法人股
56692123978201,null
50415857952848,null
74712383768321,法人股
29311992477832,null
41783930311735,朱凤明
29981996118325,null
30235151334520,郭强
28926259329594,常保军
56233516632128,null
59361800847591,null
25101164388325,董长斌
62024324749155,王珺
67418029680195,null
31930851982998,null
28973162475911,刘贺旺
74009831274226,null
30309303177622,张忠胜
31523234687215,呙中明
31131305843215,null
31711152853344,张东旭
35122887760102,法人股
28794184711326,null
85583273105239,null
34736729208915,null
30158340440895,null
32260193685262,null
74761811407273,法人股
53655118187267,null
29723254870653,廉拥军
32508033043311,null
28626911968219,null
68033251743208,赵春强
68842214121160,null
30975491642921,韩仲军
64252405831338,null
60263178124233,null
58682061571082,null
58531430862113,null
64538241321080,null
13664001335319,null
15149728455281,刘苗
55466752903249,宋日腾
31534224250223,姬淑玲
65116859361499,王盛谊
15061172855257,赵金路
39312721676017,null
31467447832330,null
74433129922676,查国平
29398169573416,贺彦兵
67972130595148,null
60736856332654,null
34833152171362,null
81552524228276,刘国栋
66641498902786,方冰
28989503043022,null
67320913125143,null
12803801338119,李波
16175892806375,赵群英
28686933768169,null
30411148949326,null
68874020784244,null
30467999570604,null
50312750761151,凌荣华
97885089382598,赵洪杰
32071517754221,null
31798911858618,null
49661521513191,田晓霞
66387222660155,null
28750493910526,刘庆丰
28797271903815,null
11042694858324,李彬
55532643418644,李凤云
79511652901127,null
49282685010931,null
16532234122368,null
97871178050219,张志武
29791261934118,null
70153197862100,null
55525682852771,null
58622210419494,null
31427721770820,张善禹
76635324767205,null
83762581273418,潘军
21438232621521,付道军
21893008442448,null
45661353381058,职工股
17490203531978,null
62861004852738,null
81533550008296,null
31720172060850,焦景君
29374286476416,null
60747893001990,周春华
77126561521354,王玲俐
14067296289214,宋顺平
30569722285135,509
68251161043209,林维福
29178316297617,null
29807221584547,郑立新
31324753238628,康静
19789165477624,白庶功
78651012094274,null
22102791125012,方琼
31536272845618,聂迪
32062536579571,池红淑
32351842096111,邢军
57089922219483,谢国春
97551288634620,null
10457295480125,null
63492649829408,李传海
75639631974155,李育
39456014189269,null
16696802224221,赵宏福
19561539835856,李萍万
60431806294241,范叔沙
32670295076323,null
35583007484225,陈路妹
69745865082184,null
31843259987662,null
29996109682974,null
71461149839251,null
69782903582831,null
31303408010102,钟燕
44868713612226,null
39781217396149,null
16319021915123,郑茶妹
30487242621930,籍福保
59074234021435,陈一照
50961209591889,董静洁
50321930438181,null
70071102491575,丁芳
30768231423531,廖学勇
46380910741126,null
32421111469892,null
30031293945556,贾斌
47889927822208,朱小钦
36962702123115,null
28825266123346,鲍伟莉
19689248970316,陈鹏
10170270898858,null
29615114817915,张绵绵
99382344209979,null
29589651168911,null
30314109199332,孙耀志
14275152779458,93
30104603020511,null
56522303413282,null
28400583078858,陈颂
71131104107161,null
72712312835314,吴传清
32294270360214,null
76132736822870,吴子斌
28730652381293,null
30037271515032,李文生
29434751392849,null
11033385568231,null
29831432778222,null
28795531795710,null
29912632508260,张利平
29296103471723,null
32529324983725,null
29553142107532,null
28789174113277,职工股
70581684635238,null
61797827521297,null
32485022071628,钟耀灿
25387393282108,null
30425129882978,温可俭
81391230041324,股东
30033452587380,杨军
22292031437339,null
31342992330153,尹玉平
83260334761265,null
71186132136155,刘芷溦
70998332337136,null
29690032303931,许卫平
65983191292152,null
16706761716630,集体
53782364908151,颜亚奇
19581206802253,李浩宇
31712927322186,林汉辉
61232929261557,法人股
51803150740629,法人股
45071788157322,null
31468249339016,null
58603663781115,null
23342755879136,null
74079460396141,黄黎华
51578515712246,邓坤
29579202506170,程金波
57182950925153,null
32083091150830,null
63756910114176,null
19708337274131,荣晓科
36819941476527,null
59502851506309,null
15556216428865,赵占刚
24149244554126,赵建华
29183313322325,于忠福
14847179505215,邸保国
32603121081431,单志国
61428925533235,null
53652952278249,null
18614681212177,杨鸿
64227562234643,叶明珠
41496523902007,梁彬
43913107076132,null
70522677616137,null
20502333696163,赵国西
39322961651837,null
36002189633983,许卫平
27096381087423,张宏栋
28738190323117,杨韶雨
38897716494179,null
30356708769325,张世海
11645327651670,H股
58073329354135,null
29915451999710,null
52986396121501,null
29992562472532,董家文
53502475164273,null
30073518893150,null
81982489502199,王希兰
57432061823141,null
14263133366245,刘爱华
29070441815229,刘万林
67274757229912,null
79153246278228,null
30234242417326,陈颂
72514223684266,冉先黎
78045610810143,null
68101859778319,null
67939005471020,null
72191270262287,计献辉
30488507219286,黄琛
34407961707617,呙中明
23576111714582,null
16414125799325,null
16661910131202,集体
28944291831266,师伟东
38201307332127,刘秀娥
30686115300323,宋桂军
28932299634626,null
29252812395329,郭静
11372102599160,null
24588157861327,null
19742001654922,姜碧珍
10695241071710,程元胜
31799197892126,null
15019734557028,null
48294931270229,null
83211328912872,李汝棠
49982553371311,吴其远
59122861340250,李锋
81799710374162,杨文斌
32487712314720,鲁建功
31653238752022,赖荣跃
64762878979143,刘湉湉
67053821440854,王林虎
65682800421189,祝祺
79847127726216,null
16363663113931,null
19889174868114,黄琛
18109130165159,null
80852863495149,自然人
32900702975618,null
76132850875280,null
30095976954192,彭国忠
70847918172723,林华森
74981520853253,null
28720147910415,万忠波
10501961486919,吴清山
22094902658618,韩贝贝
62539262221786,秦惠春
67852325728265,方冰
95380304857644,null
31768348051392,null
17618314043418,杨先林
27318606973146,null
19505263301243,李鹏程
30257791765111,于兴海
38022169982223,张钊
30676341188129,郑宇
32048199139723,张艳
97851395353319,null
31177990306163,null
29389962602122,尹珍华
19662126817277,null
29711567987175,董春玲
19633337193298,null
52386715351166,方洲
70622856259191,null
29194712866022,徐铁军
30800357231412,季建明
64931166891322,段王明
48002788920152,null
63832896710373,祝祺
29805071690490,null
16045313286192,安曙晖
67862084248210,null
43881728398108,李天鹏
52631263508112,王璐
21932572735922,null
19596116064125,杨高兴
35566525259159,俞胜蓝
23348573924254,null
10673349947176,林明安
99407798803090,龚全福
91462777346917,于智勇
30701846624302,李厚荣
39565430178159,麦凯常
76623231734103,null
69742108973142,null
30512152696914,步义芳
39212445338117,null
15476511643019,null
78962663628980,null
70452375763648,曹其考
19520672993612,周侨
76419311632385,陈德军
21781613234221,胡洪霞
96851351080177,null
76362678995189,赵敏
61705416821859,null
19735401173283,null
66091626482220,李成斌
62688876181274,null
31942677661570,林东文
19736454632850,张新和
40344512600106,null
47671483910495,null
72528019572145,林华森
47352889151284,刘满丽
72746232755105,周飞
30007153141914,张荣先
38521703227927,马士忠
71112405802980,null
10207445179852,null
28907572264412,陈国清
73055432617124,陈运宏
57768614378947,null
29301912280842,鲍伟莉
30194621042341,杨诗涛
90675409929917,霍泉
29312164971716,方青
33465436082228,幸三生
82847614301194,刘军
29485282688426,null
75332313552306,null
77764611409153,null
78155425934223,null
17170523487820,null
60212362370189,苏 健
81962823892218,null
30267681486323,null
74524813284165,谢建国
30061391856668,万君明
30826757025273,黄琛
70201726270236,林辉
82068723127114,null
73521915329115,null
70441525857687,林华森
10196461381392,刘德
82449945124710,null
26188002924628,吴普红
63034128667325,null
10329184705215,null
31977163346732,胡强
29276214606221,null
64741929897135,马莹瑜
82792371355168,刘成栋
21448662868221,null
29952819832126,null
29939862098929,null
28686215003726,null
95864520881041,null
47022153212807,刘军
26578991324430,null
31598720319130,樊卓
30231993797732,陈晓东
10068327477268,null
31934424272511,曾波
47201610296183,null
29686842253230,万君明
28660146827651,法人股
16183132827015,魏丽
79307518463155,王启兰
31349933011429,张凌欣
31590139950986,孙学慧
15576032464129,王博
30901724124506,null
31962032703330,null
68357616626115,李鸿伟
51134831326776,null
29196264077527,null
10986672074613,杨婕
14912102341927,邓庆华
29667232643422,null
29578203392526,刘现考
62410950021640,王强
30317861554331,null
31147910204183,胡洛嘉
29188290683463,蒋国建
65581313137903,null
32619236115312,孙学慧
99612112446253,null
44861867212975,null
10821545742833,倪明山
29996117154845,null
56767715206927,null
63921134456148,钟曦莹
29105043144471,null
29664393874605,林媛媛
76272407430689,吴鹏飞
19699132382031,李敦伟
81956466902164,李学纯
81652087728297,null
31793243755632,郑孝巍
32235772056029,周莉莉
19693082233711,张翅伟
86248825488223,null
19400315895167,null
32348981051529,王卉
45832837982755,null
64515661282137,null
19665832628930,null
14918312146187,null
15884126535328,null
30110285744922,王鑫
16818227985558,张小军
32723244610422,null
29829181754017,null
56933266101163,null
29269922185784,陈军
44792632183521,周鼎捷
61791324419215,嵇桂霞
13099961625520,应宏
37633268131466,黄中义
32349564452159,null
30690312697115,甘冠军
24964069355057,null
29812042868011,李颜年
19267875110222,null
97847997211586,null
32051241104954,null
29775186543107,徐丽虹
16594124682518,刘刚
80272706092698,杜韵
42082068512121,null
77291518254136,施秀妹
31891467453569,null
29444149690017,王志刚
83987629860175,null
74041955208239,集体
29926858125567,何忠义
31459114373615,贲悦
19641702970612,廖永正
52071306082559,徐可可
42581343773204,null
29282146168289,邵学良
31198105726526,null
72222395214091,张丽英
73742490764281,null
31691655817153,关大鹏
65204024711196,null
37233211709118,曾维东
45888225810508,梁悦艳
16726823354310,null
30238191352523,张斌
39932868501400,null
37700215042947,张铭
28903763142921,王玉平
30952462229060,李枫
32905451431337,孙红
30894181533129,殷振球
35731284379231,null
70451179202249,谢荣联
69052477882141,谢珍花
15431930298307,邓红柳
55821437721024,余明
50442555927054,null
29323012745829,石建华
28795340153392,null
28989506236692,null
52980815857288,null
21582737621283,null
30386322026520,null
25793932589300,null
29702737116824,null
34364819871691,陈伟
30940942616698,陈青江
14065722852129,null
51221786139192,null
34299773187456,null
53687627527218,金翔宇
77873028373214,李木荣
73912037302117,null
16524973093910,null
72304331338425,null
30174186405632,白利忠
72611211123169,张永健
30465482107718,何丰仁
14920619772163,王广跃
31211299953372,严秀娟
85975225158303,李洪涛
30419941478421,白玉锦
52522869210549,陆建永
72453411032306,陈岩
32587129377132,李裕强
38682931590285,戴永乐
28914522725732,蔡明课
35861677816203,null
29335113088884,李炜荣
29208202505214,陈志
29161546182189,杨厚建
22146267137327,null
29999313639239,杨诗涛
81739821547262,胡勇
16615512439320,朱彩云
70897921341266,施秀妹
52790519966196,王秉文
32588083091010,魏灵科
67353079392577,null
14070295814314,null
19978983200430,刘志勇
71273697212509,李中选
31546891041678,张杰
31665252717554,段丽蓉
35516825632222,null
77453031580226,null
95541335144440,null
10195277464477,null
28769266813306,王伟丽
98936843370084,陈孝义
65759520388186,null
51087945951212,null
30001209887223,王建永
68011956190110,null
29326232571836,穆秀平
19736161063654,null
10036571851307,null
69224024114623,李光标
31018291981239,null
18759452911019,null
32231221158519,李印斗
74766912421186,林金妹
11217022257782,管永清
79522613849325,许璐
10213193926545,李连生
54700210069256,null
48872619942806,null
28816335914307,于宏才
19555242396513,null
29185235295251,熊强武
30083201949990,伍长彬
28590981548298,单庆林
30286181901073,李树文
65932775332270,杨再祥
82201275285356,程时锂
78962517741805,null
44404112712132,null
15906489344184,王军
83972194976310,null
39962125702687,null
10457217299497,null
17720764314158,刘平燕
20592518802198,秦调英
39233530821298,周文忠
29302210617413,芦英武
29030317106417,宋建光
58588617347126,其他
19590117230662,刘伟
79601222039294,方丽娟
31710611142230,null
30709322052146,null
31518126502262,吕福娟
19614140910366,null
30900883048629,null
71937470663230,自然人
28713434930795,李伟
24196032813728,null
29515573164829,闫丽捧
61628898308953,null
66841124865180,null
10130371273810,陈骏超
82941259523289,null
52632795229584,null
78432021233301,张明新
19752522490132,彭德辉
58940320231298,944
31124240554423,汪艳蓉
60306422757284,null
21489259981426,饶俊
17403834121438,null
34727111345857,null
10790369236134,null
79392767075648,null
72372405452517,郭鑫堂
15812942901111,康伟
19702192048186,包建军
41872248713120,null
29080103115619,null
61864212349116,null
53119564892290,null
66354515112851,null
32443921081411,null
30515235642314,null
30930841550728,null
63162018410252,null
64271066555939,null
55466738127214,欧鼎金
32219230393374,胡碧艳
31270117324204,刘敬涛
17404241754116,null
37682095424193,null
31345471352529,陈沛文
89107163023182,傅安
31771241258122,季建明
54282049761311,null
83932219084307,霍建炉
29054643035102,黎长松
10036199382016,null
31203195952982,刘志勇
53848331185325,熊伟
33306657310147,杨文安
75612593486298,null
31657402997328,陈喜龙
65872616685381,黄东平
52083213767246,null
30427266543270,陈汝忠
65842314204935,null
25017698281718,陈运宏
15357042977323,芦丹
58352283445113,null
71451575756907,null
14131869738153,null
46870511823296,null
43591959373294,null
30804534947244,熊勇
64741214172192,常国民
38932128249300,陈小林
29491192307028,王新
68922060521743,杨沛库
15610151098514,null
24577421384220,null
32094173771522,null
31482243178235,null
30425316904312,null
91167376364953,魏群
77521644126542,null
42566229173096,姚虞坚
71929382661310,null
28665232182562,null
83011034762238,张三中
32158135040525,欧新见
31454410374539,祁丽
43172809088162,null
14363021720021,于滨国
32198244147715,null
41671214621182,李启国
29273520423225,null
93276083085963,null
15891150636217,孙涛
30740108890024,董家文
30295881585340,张瑛
30671883631326,null
56194521766296,黄敏
28834218473754,张秉健
31480192574014,null
68573196051299,null
61343417139117,null
29098201145526,延颖
74298728150255,null
46772020827268,null
76392358662319,null
33452936528829,null
33452936528829,null
10036159157407,null
10281961358310,李燕华
59586313242798,李平
31265131300864,null
16058290987824,陈建军
74859216551145,陈学荣
73932292290332,黎为龙
10161261391209,周效财
66220448102780,罗相斌
30345108586012,黄金平
59351546208202,null
19683361315513,null
32460817322322,null
48651089441150,张丽英
23917061781280,刘国民
19702331355612,张仲夏
66645916244146,null
49491814773300,李林波
30043843086820,null
52682080544432,null
39403215319036,梁涛
78825118583143,张敬吕
99552457518365,赵文杰
13504955377419,null
54231528020179,李林波
19100369518189,胡洪霞
29540162048282,刘祥生
29214172467975,自然人
18818279220674,null
31205802237710,null
19000371430119,吴友民
29963260436546,自然人
78932085320122,汪建国
29240015318630,代惠
63610316393205,张炜
33196933651277,刘丽萍
65690220657295,null
29982189184514,熊强武
10570846715475,冯昌成
29991456338316,伍长彬
16153141260817,null
96271372534163,李琰
30821041257710,null
47345624343907,仲跻和
19311723844104,null
28747424831339,null
76853263451335,null
29221263401075,陈志
73531850283300,null
10251961370520,null
54487131646236,发起人
55442807697064,詹智勇
29040290931414,邹海松
72151156221269,宋道伦
30324031417658,黄小红
19631852908032,彭代玉
71018915440263,null
53399684741869,晏文敏
60212820679177,程必荣
15935659086243,郑光友
77984127009254,刘德
31402241545714,郑伟春
99484716933598,null
23842603023731,唐生健
16165284448128,黄煜函
59251596617179,null
10202210782754,林平
80591290531073,李连生
92891126707321,null
33868689992664,陈国辉
58304626571298,368
35672839690245,null
29693626912324,万忠波
83925518998213,null
68051054512793,姚秋娟
30232417851795,刘振良
29747287757934,王桂芹
17458631303419,null
58761082060319,徐德玉
27989092156908,苗寨
65721520093155,张丽英
31576471971918,勾庆光
10623109903128,毛星山
15906160036018,张高森
29292686493255,党俊文
19718237523767,null
38111391450617,null
28757891374619,赵志霞
51215509881271,郭杨
51231349174212,null
16458106698227,刘忠
29463397088490,null
96727230909903,许清彬
30503662155527,孙晋
10903238545257,null
64832032548128,null
32242731244171,null
68206811227135,自然人
31343211488046,梁学国
52637824423188,邓德万
74771842629179,佘皆平
71901534890122,null
57622940842235,null
71791892128867,null
29934275411613,刘卫华
29575052938020,陈颂
63145030520145,null
57659929769207,null
67712294176232,null
28688163603726,沈开涛
30003643203277,刘威
30269293687516,冯利
28746364100662,王静
20572362347820,田改香
82076630345163,刘建华
80291434842579,null
30088996166304,null
59766225745127,null
33006112165627,null
59701486603322,null
40414915780186,null
17887031707320,岑新宇
63682699018303,朱占华
10964674413182,张全后
76061107120217,金丽君
31783011568119,null
64892724675109,null
29499128607713,李蓉蓉
92556810010708,杜艳平
71663132317162,何荣才
55681073973151,null
30458117131182,文琴
38001374425317,解云涛
18807109935518,null
64461786007209,null
29356112185273,张文德
29467173540110,职工
65642926687296,null
13702598273331,黄霞
29863565259213,null
60093170712473,任焱华
56441971806691,null
29203861467912,沈智鹏
70072683098221,null
54699313960245,邓印
29616526121304,null
21765182418796,张灵省
48303732762260,张昌杰
39002772936227,null
66971758621113,杨胜华
31193683030221,郑文惠
29468012063241,孙景玉
61042008306192,null
28967551664222,张士霞
60141357737160,null
30797147629922,钱春风
66767710525117,杨佳林
30485161318118,唐海
32131434244245,高成
36612469298225,null
85311356929177,null
98769260912397,null
28686938876180,张广才
10196177678528,蔡忠伟
10036143553587,温建华
29434252840179,null
95182824221707,李淑琴
49934108293175,null
83411723959162,null
16335171183717,卢克强
29789331953442,null
45302805627115,null
28962839895114,null
30124927879189,null
82831870327256,null
78991471685111,陈永平
10101252863319,张天成
11849505295123,null
64942927734321,祁华斌
30945282628225,汪建新
94952540318420,null
34217232474117,童昕
32499112120632,郭孝宝
17013141359165,null
53288430885175,null
32376282057410,马运斗
32718101901315,null
83736490772324,null
28943562693622,王聪
10145286748251,孙昶哲
37641143602101,吴鸣霄
30991898951833,null
45302173027645,null
40336765142080,萧子维
71502788711278,null
30960542513238,朱冠仲
30781468006135,null
29472091015332,王小朋
29619349123823,蒋源芳
72831957374247,null
72481829417149,苏昌儒
35020959175256,欧炎根
71261094985120,null
44888420122588,吴浙波
23557336160013,null
76299211197265,孙勇龙
82840020113014,null
32511309609124,null
30366272882623,王高毅
32366555494130,徐玉成
66413583316853,null
30097370614322,孟 娜
61512445556742,null
14635136716307,禹敬华
38811101686317,陈任棠
15893311868682,徐祥龙
31155287278214,杨德强
30748160841284,顾力
70062115801237,黄效梅
11839988025928,匡玉香
34147286362307,梁广培
81753231975198,null
57659415852277,张丽英
29380113358923,null
32321692058236,null
37621455730213,陈成豪
35218071036977,袁胜桃
24604176267014,null
70742300881014,叶叶
53622915449489,林胜林
30103222323867,李鹏程
74180111946835,曹晓燕
29010113332269,王耀辉
99292144943175,null
28898947886199,null
60132109043453,null
32528114134723,林鑫
34386438791620,孙静
30923180274656,雷造福
76317999224551,null
29808861253079,齐宗贤
31908246323429,韦权升
35682630530192,滕朝霞
30594409683894,null
42551703597122,null
16368143236711,null
96310910760292,刘炳培
33922511602260,null
29812675924687,null
29291001508358,null
74702751867141,null
58841336437210,null
84753723901143,null
33272566137406,魏承旭
32060571602971,刘晓时
58653219289157,施伟
30760222210810,丁振芝
61712609522521,null
73323496581317,何建阳
61321136425083,石皎琳
11228936046643,梁海
64642172783206,李喜萍
64016419831371,郑永君
14497239046174,苏瑜
72431538352387,陈松庆
64862426675761,姚阿凤
29338267519615,null
31112481849218,罗森伦
57962610698156,null
11052181148605,null
14235262774417,null
16724182829217,尚有琳
31142132836176,财政部
32256994021752,霍旺
97269323479102,null
15907181261526,金成
10120652870120,张海江
50622323129554,王洪亮
72039519877236,李丽霞
72081355905279,李燕
59181260766140,朱兴龙
63312025631292,null
41833119859123,严清
38853272116115,null
60448827589155,尤瑞芬
43971713023249,吕文义
30124846748850,李秀英
30622313271726,赵奇
44953189513735,黄家宝
32691412397105,null
50558180542886,陈建培
72392298152479,林荣文
29307621203211,周兆敏
54871239469120,刘世会
30099313165814,刘毅
29952273744423,王俊
33179088334122,李艳伟
99758714854051,null
72039032741506,吴永旭
32296221072483,吴菁
74632461305110,赵智海
43691355320715,null
33262110356164,张开成
97845631244374,肖蓉
29520173741202,null
23095973142918,徐恭藻
59994114435355,null
31455202740219,null
51329467492297,陈建华
30723134571927,衣振涛
57642956645929,null
32558192795310,李培明
32453113262829,冯春霖
46957553541881,眭品
99996611208044,null
35618121945327,null
24862482400532,null
30901168597102,徐炳堂
32682456896165,艾奇洁
57932341428260,张丽英
60836127560264,庹思伟
32605530782462,null
29652964382657,李建忠
31788866427418,null
58373548212222,null
31341775374209,俞新年
55761379587243,null
29992588656822,杨洪文
31536412771218,王玉兰
21602360209106,崔建强
30778507055158,null
79493274563628,张建峰
32371107367932,郭福彬
85392037951148,null
55712215220824,null
32331132808923,肖广怀
51422708711199,null
31384042008628,张亚光
76351674614242,柴为民
59543070052587,张丽英
24886862427418,null
44631828939461,郑文华
31375207840572,刘嘉达
16685281089710,null
58657353862078,林兵
29125764838202,null
30980268365912,李亚生
75783200722278,null
11702774513321,胡洛嘉
58582112074171,项建
30317200762225,null
39147333221044,null
72342511234532,null
16360612386107,刘鹏
99876091170277,null
72033950712370,张丽英
41212188208151,郑金云
16177105409874,null
31699103811926,null
63836494561720,金建立
30173683119721,尤凤娥
30730532047790,孔微英
51618996592552,江朝义
35818422303417,肖蓉
94340829639874,尤仁章
55523398421092,曹剑楚
45662703622133,任云丽
16929410528175,集体
29749215217826,毛佰万
82262403012121,null
50293129324348,null
37500383548137,李法林
31341717662159,詹长明
30703969573237,燕发旺
29767247878114,null
58093956942627,赵志华
32014204167814,null
32011711000628,null
45421338493303,沈永钢
29703891083627,郭会仁
61080614648297,余宏英
33230224076209,任俊杰
30412317140252,null
57661916133320,null
52985616579177,null
72190222998706,null
68342471657259,蒋燕
72065885041574,刘世成
97882076558259,null
33356711100207,余德锋
31718251991311,曹滨顺
29564245672924,赵荔茹
44727184742023,顾冲
65052251302292,张丽英
32687277490815,null
72401514965157,null
33537058911401,叶景坤
28741293247411,张明元
29685548838563,李波
31452001487329,孙淑杰
28749362618342,崔建强
10520705015152,null
14554296684725,null
99163804783079,黎治祥
85674964363155,谢孝平
53788111383315,张祥熙
99541768042418,null
42021144122184,赖志光
75092140550227,邹斯琪
29703202203177,null
81746901391589,null
71073121012677,null
32970515491278,null
26898810195988,null
74861225192823,null
14214112335134,郝佳佳
31297181107126,姜颖
11257012150912,null
74089630401216,王静雯
31263648271308,李美云
31353102072412,王奕元
76372118843149,范德龙
76029191662246,林关羽
29124551952824,刘赞清
71642791761239,俞鑫
58031347990141,黄建勤
37581405910676,陈育伟
71485985102830,沈志华
34182521361588,null
15892071777294,潘锦耀
59841290161866,明朝勇
29018120506837,赵子炳
31807352784221,张俊梅
32711248203355,null
69931228899182,null
30678541793165,柳开来
32716228176191,刘华艳
71392269077650,潘旭娟
0,null
99758714854051,null
31750291236320,李长才
60587784953038,朱万里
30195224648925,唐银龙
30332306105312,康占江
11142152850139,梁寒冰
19116812033412,null
57801235181321,杨怀芳
57782919281173,华莹
49072009984965,null
19817432588130,吴小飞
51142401074212,曹其考
95545400796055,null
76172446360259,法人股
53841734281140,徐州
10195831829313,林平
60266030707494,张启才
94616848572823,杨莉
17998593263689,王德秀
16305192697816,null
50699232320526,黄政
70039316639756,null
97743290349757,陈永苗
31760731672010,null
61311886185991,null
65523828361781,null
31325505662372,姜庆杰
10148961474131,郭敬秀
66086726090316,null
51332791736504,null
71722617806194,null
10101253027929,null
81791361127111,罗晓彪
94616848572823,杨莉
20992118118268,null
96527240824849,易平道
29680984914530,null
39262879157235,null
62606716647117,null
32051524804311,null
30165191258524,刘景福
10801961400529,杨锐
66595618470127,周小平
61761910706188,苏秦震
36224760432721,null
98052470550938,null
75792208231913,null
21761371541711,黄崇芳
72974014790724,自然人
29336133521924,张 萍
67141303101178,宋武龙
30964328023323,邓天骥
63135281703215,null
15259142321341,赵恒义
81612644247120,null
30506184610813,null
56991017443195,null
57477097393200,null
19517174106127,易秋云
64161758320189,null
50223820771318,周宇彬
33721846672142,null
66530215609316,何静
32508331174890,null
31905721624389,null
96693094145152,梁红俊
41441650667204,吴德标
49449928855168,张兴强
31376293064060,苏洽鹏
29767307523664,梁雪玲
98451706573970,null
59324523643315,张玉
32435092850388,张力权
16008295202824,孙吉庆
31263641350028,周汉忠
29026322798220,李雷
30819051747528,李良凯
61411020549890,null
28917955528220,韩月娥
14376051137723,80
32619614198100,张凡
30235582432620,张艳玲
53052560515473,刘忠琴
68353030333192,null
29787128153817,null
30122524005589,null
31701240466712,麻瑜芳
38121492725817,刘洪女
16121434411576,null
56710926531900,null
19599167404517,何小平
47032529171489,杨小东
29781239370121,null
31903764100262,林乐忠
50165515406185,薛方全
71807812511246,汪建国
11646751977904,孙玉杰
77373036514402,许路
19693262335961,向琴芝
49587332297149,叶明珠
28903251166121,张晓春
0,null
71196319584294,null
19530162325032,杨勇
67125163263175,刘长宝
77196210355184,龚千安
37061955572408,吴黎明
30345162226929,null
29868531703189,法人股
99953874804475,梁艳云
64481676513108,null
34592384879503,陈亮
67838521934327,袁加开
63317230724115,null
16299968029558,唐平
25355110619283,null
30268101343424,周杰
68121314922211,null
29677147482197,戚震
36219073114427,null
54072305693649,null
21811363168723,其他
16156792222232,null
26726207064474,陈承祥
32205061962217,null
59969112272164,null
83951333025308,null
31524616250656,陈建根
30422513775143,叶文智
67833020599408,null
10537186762635,张军丽
15296762802029,龙永智
62316529867116,null
79232586908190,null
29872278657124,null
20050632367079,职工
51051639981872,胡景
29236822970732,褚应喜
45663826817268,null
10142252670251,其他
31962861269942,null
30516582223578,薛治理
82521738734100,杨孝来
32001159356253,null
29684665309956,null
31864433843116,null
18517745014164,null
31299199253662,冯化文
77523916287155,职工股
32025272415487,周飞
44801161886223,胡建萍
29205863030282,韩华
25799706544270,自然人
80896622770265,null
75044116791460,null
56831188389269,刘国华
79472475104100,张凤志
71521328286542,方玉琴
58681800539242,钱丽娟
31375142689933,null
74391914624132,null
38441123482187,戴志康
31626258801816,劳松盛
77949334851659,杨彦
16984307736488,孙益安
76328717282734,null
71328075492153,马靖仪
76736516206106,其他
13304432715619,null
30359206747312,宗凡黎
17054782380963,null
38911942489477,陈杨灿
68832049264268,段忠
59412532312512,null
19626233928336,陈世腾
43512373779284,李松炎
95656576304175,null
75443512533326,null
98910002753327,null
29690432430231,null
75631017160305,null
30816100994664,薛小鹏
16782702146912,张宇峥
66071346590289,null
66429120297246,强爱萍
14505541607989,杨盼
23831199684927,林长青
36621718121636,null
30018322056999,李峰
14105709371279,倪正荣
46427946168065,徐君银
31602134267132,null
61497726652734,null
68522815399111,null
30746845461312,null
23758177422494,梁勇
98036587719620,null
71968519583133,null
10196142487746,李文艳
31873650627232,null
29353361304020,null
65939727332557,null
94825352519954,秦孝英
30493526169217,null
56215315926586,赵模章
10126052860122,陈春利
11120859408060,财政部
64561762845258,null
62162955919321,赵晨涵
31326952459320,null
32226701137021,任梓杰
31467165573825,林润
30735554242406,栗建辉
30174353211284,夏明光
84892189968332,null
70347768631028,null
31562024752869,null
32201390104112,何敏
14489142983123,赵静勇
55730028975426,项福定
81735123629204,杜向红
32133205649725,null
76303038006310,姜廷芳
61645316368186,null
30478123530744,null
61412450676190,金益洪
79093155738219,徐九君
32265215612130,马德志
32225593587220,王淇
38331516448204,null
30550011572111,李好好
70843457551764,林小发
72302873522131,null
46113029047938,麦影帆
14183813144813,null
24096912469318,null
82841113318204,涂刚
33806293211687,null
40113725396268,林海生
67253410973194,null
89907426787802,张建国
59192813046758,何家林
41352307392273,庄英武
30513019716141,杨秉人
29183791126222,null
71106828953164,null
83951714436297,null
36392241490144,韩雍
32214311127046,周湛滔
32588441063930,吴立辉
64559113486265,李婧
19593246403125,陈斌
30139646842165,null
30169141347315,游建国
68521484137943,陈小飞
10908034980430,汤东林
30307305220212,王爱敏
79921177081521,张建明
40111039037172,吴贝妮
29659184009816,黄淑玲
16208168729128,蔺志彪
24896082221718,王志兰
58011777190111,沈彩娟
47532819596181,null
69965189771144,null
61957620012244,洪家堃
33136669402967,null
29798632567920,陈志
32344522586819,null
45801766706174,连式雄
27399932462818,孙文强
28686243267123,王雪涛
38062577328431,null
30194831087420,null
62792717877152,null
95734324838931,孙晖
31461901282921,陆健强
30516051058231,null
29250892210132,谢紫薇
73191168707121,马驰洲
23667143498223,null
29910572326410,null
78806967175571,null
65914534771199,卢卡丽
54832437999310,null
42418323138155,null
27389772673958,付玉成
51813187768662,null
16697375630159,陈斌
27816378034234,杨佳鑫
70732102495110,吴云坚
30868259080022,法人
57782381710634,王忠
44162155194223,张松林
64999654891957,赵明江
31053263002110,雷造福
58893341290863,null
31977281244556,叶念乔
31023791010550,财政部
50815194721512,null
30823091048477,蒋元昌
74630519639145,null
83642988787257,null
66913536961019,张青青
56526325742168,熊燕军
81181668704179,null
19517141801314,谢菁
49789417865289,冯声远
58068155117783,赵波
30592944451853,null
30913321749727,曹明宇
30009279625516,黎明
65541716773278,null
82283126222471,张凯
30120262982719,史秀文
22194923105718,null
57265872691916,null
32068173444722,巫远民
32245600817696,null
29957599646192,杜利锋
69643519511406,null
83915614661397,罗晓
44108113999106,null
29923517582181,null
32063599703060,null
80958437421052,null
74451978170570,null
67971924393216,郭佳
61122456773229,null
71483717284366,null
43737923441406,null
31686230032432,null
52255829032306,余洪旭
30089316945566,范洪升
51017369953172,陈射石
32295582176320,陈汶锋
30443219647222,崔建强
32366202163712,null
32910762834718,null
29918206937786,null
76184822812115,许超煌
44998267362472,王志强
32139368141555,张中秋
72699629944223,刘磊
57174621575186,姜义军
31118183482112,null
21093192007098,张骞
14241124058260,null
64585730928787,沈含旭
14274114675214,null
69582759411208,个人股
15879773896274,null
31811120111085,孙淑杰
15924130066995,雒肖蜻
29869250534717,谭卫明
91243194604385,齐建湘
10711457669313,陈伟华
31768928282238,null
74615512494296,null
66605372321890,null
30817220971274,杨秋生
65941917393024,毛晨尧
44719185953232,谢庆华
50164713295956,null
10036270757777,陈志英
17676156716824,null
67333045177261,null
71712435474670,null
75331361665318,钱先锋
61086023003236,徐根兄
10036220379716,李忠
10141961396221,吴清山
31394881458818,冷双文
59881916832266,汤治星
32135334966276,李晔
32761196344943,null
11667487632855,null
63981061793101,王莹
32066976202312,null
30513810980327,null
31970729986138,刘振平
18655175956326,null
29111231398319,null
16282110594626,null
10448131431683,null
30749282051421,null
99665105157818,null
60386912450804,李长明
30326501832210,任立广
30611137156102,张承伦
29777228906415,股东
54557307953010,null
11570622632412,吴德华
38907199191539,null
70818114082298,张春荣
24096962958428,曲建霞
61517922616744,张成义
31670234761722,鞠波海
37551778300976,舒国媚
65402625926513,颜柏松
39402496381297,null
31697007528178,null
57396081841260,null
29959082791729,吴常旭
66822229542635,曹社林
31185623018291,null
16680117738175,法人股
76893720731274,null
66282492649608,null
79196487312922,郑树华
73431959933661,null
30003894315926,万小萍
91505602652793,null
43336851191612,null
31003502456680,null
82445061693127,null
16463102703413,null
58883011992513,null
57682519952820,null
28955226156235,null
63711209970192,邵柏芝
31125216675689,骆金超
52812236589680,null
30069848775356,许帮成
77912624352309,卓衍昭
31576154777113,null
18499719763162,null
30713231652131,null
31909931006629,胡向阳
19366007424231,null
71308927983114,陈敏兆
75942678986171,冯烈
30233763056849,null
63858094363148,null
57592344168323,范永贵
30407232290630,丁希军
26898107183928,杨枝
76642021787159,张德生
78928384591596,null
29108298270223,刘超
57405375501748,陈德国
60612801774299,null
59704724861235,null
31010232612299,毕春光
91344264739615,叶玲
32672774250619,null
31152670260151,张晓开
16934658684123,null
46321492099941,null
11843882493422,null
32637125372128,吴彬
71636028207175,null
30341491940729,吴凤全
63791715762155,null
91209150058795,黄金魁
40452106266141,李华昌
16965202280016,陈清楚
29791531709260,陈富杰
79036327765743,null
32398256688916,null
77564127204326,熊家富
71531885418728,敖卫斌
69505077101774,唐海荣
78964919453045,null
23515312723025,陆晓明
38741316327313,null
82801902470108,郑燕
75287125745834,null
10704672336621,吴再强
16156962255312,周松雨
29681347682657,null
29807183253420,朱常德
76242487202179,null
28798927815304,李晓宏
57701725052740,熊新兰
77154815462153,汪良美
39522113069107,null
98922707789646,郑金根
64325187155503,邱权书
57761825461907,null
31899224115218,范雨新
31154823160330,null
32099592226121,刘冬文
30828392923284,李占海
66033036823741,杨林英
30832117633183,法人股
32652153611116,陈汝榕
31748471662718,null
28003671653072,null
16618304978776,曹灵元
26915791371820,陈斌
82261077828209,袁凤
44789426162149,null
60201828135310,null
71741812931255,李正美
79476935285422,李爱贤
51416428287975,李光明
34720424770800,阮姗姗
94221150665875,李建中
32336200825222,卢升萍
38477121001780,盛凤祥
63099732210254,null
30632181086711,null
54164373683256,蒲明宏
77514425252733,刘振球
85662669254126,赵峡
19731446381113,陈斌
45527028395179,刘晓刚
29242817499319,李雪莲
30023814191160,刘艳艳
78972561081231,null
30093025254190,石岩
75202043715131,null
57451677217894,刘春影
59281652225484,林家艺
70418247861595,吴坚
66544984362701,杨平
95949832661613,聂斌
29654292834312,陈斌
10072177395126,陈斌
80412629464631,null
30440495229456,田士军
11810549592141,李之洋
10700526205101,王钢锋
42092562662141,董新桥
70592560343321,曾晓琴
24846281649628,范德龙
21247224412915,孙兴波
29977244838916,马汉军
59591008627860,null
30437359519826,吴维顺
33427627395170,颜田云
95421331738164,杨彦侠
19604358276514,聂如虎
29082511285285,null
58693521580125,周佳益
79994111794204,褚言永
31733566200103,null
64793112009229,徐根明
29464072183530,李东升
29161783225322,王春刚
67619302152840,null
30900921551518,null
31376322423624,顾翠玲
71176120021124,null
30161290984113,白平女
94221150665875,李建中
44881326892465,null
83712559437241,李广玉
14259981480743,舒禹铭
31159601924221,陈玉林
