持股人,公司,分数
79,7,-0.7467702
150,59,-1.8580519
94,72,2.2938097
158,44,-3.485102
15,75,-3.1821868
16,12,-3.5667858
23,88,-15.562325
115,65,-6.927646
119,34,-42.035454
74,31,-4.773299
70,90,0.058073297
74,59,-1.8580544
166,71,-7.9478555
130,1,-2.338548
0,42,-4.680981
126,60,-1.4212608
95,52,-29.678368
50,77,0.16348253
67,26,-3.1821873
83,0,-3.5880551
130,67,-3.1821868
159,66,-2.075219
8,42,-4.680983
8,70,-3.1821868
12,11,-4.4758606
103,79,-3.8743021
146,41,-3.2402933
38,25,-3.1821892
111,64,-1.6859733
25,19,-2.8794708
104,21,-3.1821828
66,89,-3.086324
124,72,2.2938097
125,9,-56.20644
83,38,-53.410892
80,6,-3.2746525
83,66,-2.075225
38,63,-1.7138782
35,31,-4.773301
39,0,-3.588053
20,43,-3.1821892
17,11,-4.4758606
46,76,-3.1821868
139,8,-2.8735867
104,59,-1.8580519
139,36,-4.231129
147,21,-3.1821868
4,52,-29.678368
4,80,-2.5611227
59,84,-3.1821914
92,7,-0.7467683
17,49,-8.561958
112,86,-12.006968
13,38,-53.41089
47,32,-25.207203
55,17,-4.5199003
116,60,-1.4212633
113,28,-3.8278713
76,5,-3.9930787
68,25,-3.1821938
71,85,-1.9399114
131,66,-2.075225
92,73,-2.8227296
13,10,-78.55549
135,35,-14.501803
164,6,-3.2746527
47,70,-3.1821868
29,50,-0.42816415
26,18,4.6265745
113,66,-2.0752208
48,12,-3.5667837
88,6,-3.2746506
84,65,-6.927646
9,37,-6.0924463
43,31,-4.773301
101,14,-15.187474
143,67,-3.1821887
109,27,-4.471131
56,39,-3.1821856
64,24,-3.182185
64,52,-29.678368
125,67,-3.1821873
160,5,-3.9930787
156,64,-1.685974
81,1,-2.3385503
140,73,-2.8227298
25,49,-8.56196
22,17,-4.5199003
35,89,-3.086324
36,26,-3.18219
136,62,5.022011
18,6,-3.2746525
44,11,-4.4758606
144,47,-3.8814714
101,85,-1.9399134
6,26,-3.1821854
117,59,-1.8580494
57,19,-2.8794708
72,84,-3.1821914
153,0,-3.588051
97,13,-5.241819
93,72,2.293812
136,34,-42.035454
31,50,-0.42816415
18,44,-3.4851086
15,12,-3.5667877
52,38,-53.410892
1,78,-2.4012764
118,34,-42.035458
52,71,-7.9478555
73,31,-4.773299
73,59,-1.8580563
77,0,-3.5880532
32,25,-3.1821895
129,1,-2.338546
90,8,-2.8735824
10,36,-4.2311277
132,61,-11.964684
105,73,-2.8227272
161,32,-25.207188
26,76,-3.1821847
23,44,-3.4851043
27,13,-5.241819
85,32,-25.207184
82,0,-3.5880532
85,60,-1.4212589
148,73,-2.8227296
106,20,-3.1821866
102,79,-3.874304
145,41,-3.240297
6,63,-1.7138762
37,25,-3.1821892
40,57,-3.1821868
106,53,-3.1821866
65,19,-2.879469
61,78,-2.4012828
128,60,-1.4212633
86,7,-0.7467683
153,90,0.058073297
157,31,-4.773299
157,59,-1.8580544
94,1,-2.338548
141,68,-3.3326108
19,43,-3.1821847
23,12,-3.5667858
33,52,-29.678368
111,20,-3.1821866
114,80,-2.5611265
122,65,-6.927643
66,45,-4.811959
77,90,0.058073096
33,24,-3.1821868
94,39,-3.1821895
91,7,-0.7467702
94,67,-3.1821868
133,60,-1.4212627
137,1,-2.338548
166,0,-3.588051
15,70,-3.1821868
46,32,-25.207188
49,64,-1.685974
74,26,-3.1821895
7,57,-3.1821868
163,6,-3.2746506
15,42,-4.680983
166,66,-2.0752208
129,87,-3.1821876
11,31,-4.7732973
7,90,0.058073297
103,8,-2.8735843
28,50,-0.4281664
123,87,-3.1821895
66,18,4.62657
87,6,-3.2746487
158,58,-1.5599952
82,86,-12.006966
45,63,-1.7138803
8,37,-6.0924463
42,31,-4.7732954
103,46,-5.0371103
24,11,-4.4758587
142,67,-3.1821887
38,20,-3.1821866
111,59,-1.8580538
146,8,-2.8735843
146,36,-4.231126
58,71,-7.9478517
66,84,-3.1821914
151,25,-3.1821914
154,85,-1.9399134
99,7,-0.7467681
95,66,-2.0752187
116,26,-3.1821918
16,69,-3.182185
20,38,-53.410892
54,32,-25.207188
112,15,-6.457616
71,51,-1.8036143
67,40,-6.6411695
130,53,-3.1821868
75,25,-3.1821914
138,66,-2.0752208
96,13,-5.241819
30,50,-0.4281664
134,55,-3.1821847
25,5,-3.9930806
4,19,-2.8794668
46,90,0.058075204
55,12,-3.5667877
83,52,-29.67837
150,84,-3.1821873
38,77,0.1634851
139,22,-3.1821914
83,85,-1.9399154
164,1,-2.3385503
13,5,-3.9930747
104,45,-4.811955
104,73,-2.8227253
108,14,-15.187468
147,35,-14.5018015
4,66,-2.0752149
59,70,-3.1821887
63,39,-3.1821895
29,45,-4.811955
121,22,-3.1821914
63,72,2.2938097
126,85,-1.9399134
84,32,-25.207203
88,1,-2.338548
17,63,-1.7138803
155,84,-3.1821895
147,73,-2.8227277
159,25,-3.1821895
39,57,-3.1821887
43,26,-3.1821914
24,69,-3.1821868
21,37,-6.0924463
140,2,-124.973404
113,14,-15.187476
5,46,-5.037112
135,21,-3.1821866
92,59,-1.8580563
160,0,-3.588051
156,59,-1.8580525
47,84,-3.1821895
96,33,-18.906677
93,1,-2.3385456
25,44,-3.4851086
117,21,-3.1821826
113,80,-2.5611267
51,58,-1.5600008
72,46,-5.037112
76,20,-3.1821868
128,16,-6.047925
35,56,-3.1821868
136,1,-2.338548
93,39,-3.182187
139,61,-11.964684
165,0,-3.588049
31,45,-4.811957
109,13,-5.241819
64,38,-53.41089
125,53,-3.1821873
122,21,-3.1821847
125,81,-3.1821873
80,78,-2.4012806
144,28,-3.8278773
89,0,-3.588051
36,12,-3.566788
161,27,-4.471129
44,25,-3.1821892
105,40,-6.6411695
102,8,-2.8735867
148,2,-124.973366
64,76,-3.182185
144,61,-11.964685
60,65,-6.927646
57,33,-18.906675
81,53,-3.1821892
160,90,0.058073297
156,79,-3.874304
18,30,-2.0021582
18,58,-1.5600008
145,8,-2.8735867
26,43,-3.1821847
36,83,-1.3505546
118,20,-3.1821887
121,80,-2.5611286
22,32,-25.207209
52,57,-3.1821887
73,45,-4.811957
77,14,-15.187477
32,11,-4.4758587
132,47,-3.8814697
98,7,-0.7467702
32,44,-3.4851067
26,90,0.058077313
56,64,-1.6859759
53,32,-25.207193
114,47,-3.881468
69,72,2.2938097
85,46,-5.0371103
10,88,-15.562328
6,77,0.163487
36,51,-1.8036151
165,86,-12.006962
14,62,5.0220137
27,65,-6.9276443
106,39,-3.1821892
61,64,-1.6859785
65,33,-18.906673
123,16,-6.047925
85,84,-3.1821876
82,52,-29.67837
41,18,4.626572
37,77,0.16348319
86,26,-3.1821914
141,54,-46.74619
149,67,-3.1821868
107,14,-15.187476
44,83,-1.3505524
41,51,-1.8036166
65,71,-7.9478536
62,39,-3.1821876
150,40,-6.6411695
94,53,-3.1821868
158,25,-3.1821852
102,38,-53.41089
15,84,-3.1821895
23,69,-3.1821828
57,63,-1.7138822
115,46,-5.0371103
119,15,-6.457616
74,12,-3.5667877
70,71,-7.9478574
74,40,-6.64117
137,53,-3.1821868
95,0,-3.588049
134,21,-3.1821847
166,52,-29.678368
130,10,-78.55549
137,86,-12.006964
95,33,-18.906675
166,85,-1.9399134
116,21,-3.1821892
50,58,-1.5599989
3,39,-3.1821895
74,78,-2.4012787
90,52,-29.678368
8,23,-3.9590507
8,51,-1.8036166
11,83,-1.3505505
103,60,-1.4212602
146,22,-3.1821873
38,6,-3.2746506
111,45,-4.811957
111,73,-2.8227272
45,82,-3.0124686
66,70,-3.1821887
67,7,-0.7467681
124,81,-3.1821868
62,59,-1.8580563
83,19,-2.879473
83,47,-3.8814714
146,60,-1.4212583
38,44,-3.4851062
38,72,2.293809
139,17,-4.5199003
20,24,-3.1821892
16,83,-1.3505526
46,57,-3.1821868
147,2,-124.97338
104,40,-6.6411657
120,14,-15.187474
4,61,-11.964678
59,65,-6.927646
75,39,-3.1821914
155,46,-5.037112
34,5,-3.9930787
134,41,-3.2402933
91,79,-3.874306
159,20,-3.1821868
20,90,0.058073096
17,58,-1.5599989
100,1,-2.338548
47,13,-5.241817
124,21,-3.1821868
120,80,-2.5611286
54,89,-3.086322
55,26,-3.1821895
116,41,-3.2402987
113,9,-56.206448
75,77,0.16348062
71,66,-2.0752206
31,11,-4.4758587
131,47,-3.8814714
92,54,-46.74619
12,82,-3.0124707
135,16,-6.047925
163,78,-2.4012766
34,76,-3.182185
47,79,-3.874306
29,31,-4.7732973
55,64,-1.6859759
0,81,-3.1821847
84,46,-5.0371103
87,78,-2.4012785
127,8,-2.8735847
9,18,4.626572
43,12,-3.5667877
100,86,-12.006966
143,48,-34.59207
112,40,-6.64117
109,8,-2.8735867
5,60,-1.4212633
64,5,-3.9930787
64,33,-18.906677
67,65,-6.9276447
125,48,-34.59207
127,46,-5.037112
156,45,-4.811957
159,77,0.16348253
80,73,-2.8227296
96,47,-3.8814678
144,23,-3.9590528
25,30,-2.00216
21,89,-3.086322
160,19,-2.8794708
36,7,-0.7467685
17,78,-2.4012806
43,83,-1.3505545
125,20,-3.1821873
25,63,-1.7138803
64,71,-7.9478536
80,45,-4.811957
72,65,-6.927646
139,47,-3.8814697
96,85,-1.9399115
93,53,-3.1821845
97,22,-3.1821895
31,31,-4.7732973
136,15,-6.457614
18,25,-3.1821914
52,19,-2.8794708
5,0,-3.5880532
1,59,-1.8580494
118,15,-6.457614
55,84,-3.1821895
52,52,-29.678371
73,12,-3.5667858
73,40,-6.64117
76,72,2.2938097
136,53,-3.1821868
165,52,-29.678368
32,6,-3.2746506
132,42,-4.680983
161,41,-3.240297
10,17,-4.5199003
13,77,0.16348574
105,54,-46.746197
26,85,-1.9399114
68,64,-1.6859785
127,66,-2.0752208
85,13,-5.241817
81,72,2.2938066
85,41,-3.2402952
10,83,-1.3505524
106,1,-2.3385477
106,29,-2.0838337
26,57,-3.1821847
40,38,-53.410892
37,6,-3.2746506
114,14,-15.187475
145,22,-3.1821914
148,54,-46.74617
61,26,-3.1821938
148,82,-3.0124686
106,34,-42.03546
148,87,-3.1821876
65,0,-3.5880492
61,59,-1.8580588
128,41,-3.2402968
85,79,-3.8743021
153,71,-7.9478555
157,12,-3.5667858
101,53,-3.1821887
157,40,-6.641172
41,13,-5.241819
19,24,-3.1821847
22,84,-3.1821873
56,78,-2.4012787
114,61,-11.964682
122,46,-5.0371084
122,74,-58.243824
77,71,-7.947857
36,37,-6.092446
33,5,-3.9930787
94,20,-3.1821868
94,48,-34.59207
133,41,-3.240297
136,73,-2.8227296
137,10,-78.55549
102,33,-18.90668
165,72,2.293809
49,45,-4.811957
2,54,-46.74618
57,58,-1.5599989
74,7,-0.7467702
7,38,-53.410892
137,48,-34.592075
166,47,-3.8814697
15,23,-3.9590507
110,60,-1.4212627
11,12,-3.5667858
7,71,-7.9478555
45,6,-3.2746506
65,85,-1.9399115
58,14,-15.187465
65,90,0.058073297
66,27,-4.471131
129,40,-6.641168
86,78,-2.4012806
90,47,-3.881468
158,39,-3.1821852
161,71,-7.9478536
45,44,-3.4851067
42,12,-3.5667837
45,72,2.2938097
27,24,-3.1821868
23,83,-1.3505486
142,48,-34.59207
38,1,-2.3385477
145,80,-2.5611286
146,17,-4.5199003
45,77,0.16348253
66,65,-6.927646
158,77,0.16348764
154,66,-2.0752208
98,79,-3.874304
95,47,-3.881468
138,9,-56.206448
24,30,-2.00216
119,67,-3.1821892
20,19,-2.879471
54,13,-5.241819
111,87,-3.1821892
123,41,-3.240297
120,9,-56.206448
75,6,-3.2746525
78,66,-2.075219
130,62,5.0220127
138,47,-3.8814697
95,85,-1.9399114
99,54,-46.746193
142,16,-6.047927
30,31,-4.773299
34,0,-3.588051
134,36,-4.231126
4,0,-3.588047
124,67,-3.1821868
54,84,-3.1821895
150,65,-6.9276447
91,46,-5.0371103
38,58,-1.5599971
0,10,-78.55549
139,3,-5.595378
163,73,-2.8227272
16,18,4.626574
12,77,0.16347998
46,71,-7.9478536
104,54,-46.746166
107,86,-12.006964
147,16,-6.047921
4,47,-3.8814662
29,26,-3.1821854
63,20,-3.1821868
163,45,-4.811955
126,66,-2.0752208
0,76,-3.1821847
84,13,-5.241819
87,73,-2.8227253
155,65,-6.9276443
147,54,-46.746185
159,6,-3.2746506
28,89,-3.086324
159,34,-42.03545
39,38,-53.410892
43,7,-0.7467702
24,50,-0.42816448
21,18,4.626572
24,78,-2.4012787
120,66,-2.0752208
76,0,-3.588051
79,65,-6.927646
159,72,2.2938097
156,40,-6.64117
103,85,-1.9399114
100,53,-3.182185
34,90,0.058075204
59,19,-2.8794708
55,78,-2.4012806
117,2,-124.9734
51,39,-3.1821914
72,27,-4.471129
151,64,-1.6859778
9,32,-25.207188
35,37,-6.0924463
39,6,-3.2746525
135,73,-2.8227272
17,17,-4.519902
139,42,-4.680983
31,26,-3.1821892
108,85,-1.9399095
164,72,2.2938066
64,19,-2.8794708
67,79,-3.874304
125,62,5.0220094
127,60,-1.4212608
80,59,-1.8580563
144,9,-56.206448
88,72,2.2938097
113,1,-2.338548
109,60,-1.4212627
47,38,-53.41089
44,6,-3.2746506
105,21,-3.1821847
101,80,-2.5611267
144,42,-4.680985
113,34,-42.035458
60,46,-5.0371103
97,8,-2.8735847
160,71,-7.9478536
161,8,-2.8735847
164,40,-6.6411724
127,61,-11.964684
18,39,-3.1821914
44,44,-3.4851062
26,24,-3.1821847
118,1,-2.3385499
121,61,-11.964684
73,26,-3.1821876
76,86,-12.006964
31,83,-1.3505524
132,28,-3.8278751
140,41,-3.2402968
97,79,-3.874304
26,71,-7.9478536
56,45,-4.811957
53,13,-5.241817
5,85,-1.9399154
156,70,-3.1821868
85,27,-4.471129
10,69,-3.1821866
148,68,-3.3326128
106,15,-6.457612
6,58,-1.5599971
36,32,-25.207188
114,0,-3.588049
14,43,-3.1821828
109,80,-2.5611286
69,25,-3.1821895
61,45,-4.8119583
65,14,-15.187469
85,65,-6.9276443
86,2,-124.97339
128,55,-3.1821892
93,78,-2.4012764
40,90,0.058075204
49,12,-3.5667877
149,48,-34.59207
106,86,-12.006966
44,64,-1.6859733
41,32,-25.207203
122,60,-1.4212583
65,52,-29.678364
62,20,-3.182185
136,87,-3.1821895
94,34,-42.03545
158,6,-3.2746465
161,66,-2.0752208
102,47,-3.8814697
123,7,-0.7467683
2,40,-6.6411695
23,50,-0.42816415
27,19,-2.879469
57,44,-3.4851067
57,72,2.2938097
115,27,-4.4711328
118,87,-3.1821914
73,84,-3.1821876
74,21,-3.1821868
137,34,-42.03545
134,2,-124.97339
95,9,-56.206448
15,37,-6.0924463
137,62,5.0220127
145,47,-3.8814697
102,85,-1.9399134
37,31,-4.773299
137,67,-3.1821868
95,14,-15.187471
3,15,-6.457614
110,79,-3.874304
50,39,-3.1821895
3,20,-3.1821868
66,13,-5.241819
90,33,-18.906672
154,33,-18.906677
11,64,-1.6859714
8,32,-25.207188
45,58,-1.5599989
146,3,-5.5953755
111,26,-3.1821892
111,54,-46.74618
114,86,-12.006962
46,0,-3.588051
66,51,-1.8036166
66,79,-3.874306
70,20,-3.1821887
159,0,-3.588051
83,28,-3.8278754
162,65,-6.927646
24,44,-3.4851067
38,53,-3.1821866
20,5,-3.9930806
16,64,-1.685974
46,38,-53.410892
146,74,-58.243824
28,18,4.62657
123,27,-4.471131
119,86,-12.006969
78,52,-29.678368
75,20,-3.1821887
142,2,-124.97339
99,40,-6.6411715
96,8,-2.8735867
138,61,-11.964684
33,77,0.16348253
20,71,-7.947857
54,65,-6.9276443
99,73,-2.822729
4,14,-15.187464
103,14,-15.187475
124,2,-124.97338
120,61,-11.964684
54,70,-3.1821868
55,7,-0.7467702
58,39,-3.1821876
75,58,-1.5600008
75,86,-12.006968
79,27,-4.471131
150,79,-3.8743021
34,52,-29.678368
134,88,-15.562328
12,63,-1.7138824
16,32,-25.207195
34,57,-3.182185
115,85,-1.9399134
55,45,-4.811957
71,19,-2.8794687
130,21,-3.1821868
0,62,5.0220118
84,27,-4.4711328
87,59,-1.8580519
87,87,-3.1821873
126,80,-2.5611267
108,47,-3.881468
147,68,-3.3326108
8,90,0.058075204
42,84,-3.1821852
24,64,-1.685974
108,80,-2.5611227
5,41,-3.2402968
63,77,0.16348253
64,14,-15.187476
67,46,-5.0371084
127,27,-4.471129
88,34,-42.035454
8,62,5.0220146
85,2,-124.97335
127,55,-3.1821868
130,87,-3.1821895
156,26,-3.1821895
159,86,-12.006964
96,28,-3.8278713
25,11,-4.4758606
21,70,-3.1821868
25,39,-3.1821914
125,1,-2.3385503
125,29,-2.0838366
83,58,-1.5600007
80,26,-3.1821914
76,15,-6.457614
38,83,-1.3505524
35,51,-1.8036166
96,66,-2.0752208
97,3,-5.595378
135,87,-3.1821892
139,28,-3.8278751
139,56,-3.1821887
104,79,-3.8743021
52,0,-3.588053
4,72,2.2938166
1,40,-6.6411676
5,9,-56.206448
60,13,-5.241819
117,87,-3.1821852
152,25,-3.1821854
76,53,-3.1821868
73,21,-3.182185
9,84,-3.1821895
17,69,-3.1821887
31,78,-2.4012785
132,23,-3.9590507
9,89,-3.086322
13,58,-1.5599971
47,52,-29.678368
105,35,-14.501807
147,88,-15.562331
113,20,-3.182185
68,45,-4.81196
131,86,-12.006971
89,33,-18.906677
127,75,-3.1821868
85,22,-3.1821876
47,90,0.058073297
44,58,-1.5600009
93,7,-0.74676406
29,70,-3.1821828
26,38,-53.41089
40,19,-2.8794708
106,10,-78.55549
113,86,-12.006964
145,3,-5.595378
148,35,-14.501805
48,32,-25.207216
148,63,-1.7138822
69,20,-3.1821868
128,22,-3.1821918
157,21,-3.182185
101,34,-42.035458
22,65,-6.927643
56,59,-1.8580544
114,42,-4.680981
122,27,-4.471129
122,55,-3.1821847
125,87,-3.18219
77,52,-29.67837
81,21,-3.1821892
141,2,-124.973404
98,40,-6.64117
36,18,4.6265717
32,77,0.16348253
36,46,-5.0371084
17,89,-3.086324
14,57,-3.1821828
94,29,-2.0838342
133,22,-3.1821914
102,14,-15.187476
6,46,-5.0371065
136,82,-3.0124705
49,54,-46.74618
123,2,-124.97337
2,35,-14.501803
57,39,-3.1821895
153,20,-3.1821868
78,27,-4.471127
89,53,-3.1821868
137,29,-2.083836
15,4,-3.3118794
15,32,-25.207188
18,64,-1.685974
110,41,-3.240297
44,78,-2.4012804
65,66,-2.0752208
110,74,-58.243816
73,51,-1.8036166
69,40,-6.64117
66,8,-2.8735886
129,21,-3.182185
86,59,-1.8580563
90,28,-3.827871
129,49,-8.561956
158,20,-3.1821826
161,52,-29.678368
161,80,-2.5611286
45,25,-3.1821895
41,84,-3.1821895
45,53,-3.1821868
27,5,-3.9930787
23,64,-1.6859695
27,33,-18.90668
145,61,-11.964684
145,89,-3.086324
66,46,-5.0371103
82,20,-3.1821892
162,27,-4.4711328
158,86,-12.006965
6,83,-1.3505505
37,45,-4.811957
98,60,-1.4212589
95,28,-3.827873
137,81,-3.1821868
27,71,-7.9478555
24,39,-3.1821895
119,48,-34.59207
141,22,-3.1821876
53,85,-1.9399114
3,34,-42.035454
74,73,-2.8227296
123,22,-3.1821895
119,81,-3.1821892
154,19,-2.8794708
78,47,-3.8814697
75,15,-6.457614
150,8,-2.8735862
37,83,-1.3505524
138,28,-3.8278751
99,35,-14.501803
19,63,-1.7138801
141,88,-15.562335
30,12,-3.5667858
33,72,2.2938097
54,60,-1.4212608
3,72,2.2938097
150,46,-5.0371084
94,59,-1.8580544
91,27,-4.4711328
146,55,-3.1821847
15,90,0.058075204
12,58,-1.5600007
46,52,-29.678368
49,84,-3.1821895
107,67,-3.1821868
146,88,-15.562328
115,80,-2.5611324
63,1,-2.338548
126,42,-4.680983
71,14,-15.187481
163,26,-3.1821873
126,47,-3.8814697
0,57,-3.1821847
7,82,-3.0124724
87,54,-46.74618
126,75,-3.1821868
130,16,-6.047923
159,15,-6.457614
28,70,-3.1821887
42,79,-3.8743002
120,47,-3.8814697
124,16,-6.047921
24,59,-1.8580544
75,72,2.2938058
79,46,-5.0371103
159,53,-3.1821868
8,57,-3.1821868
103,66,-2.0752206
100,34,-42.035458
104,3,-5.5953755
38,12,-3.5667858
34,71,-7.9478555
142,87,-3.1821914
59,0,-3.588053
55,59,-1.8580544
104,8,-2.8735824
124,87,-3.1821895
59,33,-18.906681
151,45,-4.811959
9,13,-5.241819
35,18,4.626572
38,78,-2.4012785
135,54,-46.74619
16,89,-3.0863183
17,26,-3.1821914
112,35,-14.501805
139,23,-3.9590526
64,0,-3.588051
67,60,-1.4212602
125,43,-3.1821873
127,41,-3.240297
152,20,-3.1821828
43,45,-4.811959
131,15,-6.457616
88,53,-3.1821868
92,22,-3.1821914
17,64,-1.6859759
109,41,-3.240297
47,19,-2.8794708
43,78,-2.4012806
47,47,-3.8814697
25,58,-1.5599989
68,7,-0.7467723
64,66,-2.0752208
113,15,-6.457614
68,40,-6.6411743
96,80,-2.5611286
160,52,-29.678368
160,80,-2.5611286
164,21,-3.1821892
105,2,-124.97342
47,85,-1.9399134
4,86,-12.00696
26,5,-3.9930768
29,65,-6.927643
117,73,-2.8227248
121,42,-4.680983
76,67,-3.1821868
84,52,-29.678364
136,48,-34.59207
39,77,0.16348062
140,22,-3.18219
5,33,-18.906677
2,1,-2.3385458
97,60,-1.4212608
35,66,-2.0752227
56,26,-3.1821856
52,85,-1.9399134
5,66,-2.0752232
64,39,-3.1821876
85,8,-2.8735867
152,40,-6.6411676
14,19,-2.8794668
148,49,-8.561958
36,13,-5.241817
113,72,2.2938097
114,9,-56.206448
17,84,-3.1821914
14,52,-29.678371
117,41,-3.2402916
69,6,-3.2746506
64,86,-12.006969
72,71,-7.9478574
85,74,-58.24383
128,36,-4.231129
136,21,-3.1821868
93,59,-1.8580513
165,20,-3.1821847
89,48,-34.592068
48,84,-3.182187
149,29,-2.0838342
122,41,-3.2402933
136,68,-3.3326108
94,15,-6.457612
161,47,-3.8814697
23,26,-3.1821854
105,60,-1.4212602
102,28,-3.8278732
122,79,-3.8743021
2,21,-3.1821847
27,0,-3.588051
57,25,-3.1821895
57,53,-3.1821868
60,85,-1.9399134
115,36,-4.231129
78,13,-5.241819
118,68,-3.3326128
74,2,-124.97339
36,70,-3.1821873
137,15,-6.457614
137,43,-3.1821868
153,39,-3.1821895
18,78,-2.4012806
15,18,4.626572
145,28,-3.8278732
102,66,-2.0752208
37,12,-3.5667858
118,40,-6.641172
141,17,-4.519902
2,87,-3.1821873
18,83,-1.3505545
58,0,-3.5880492
73,65,-6.9276443
90,14,-15.187471
154,14,-15.187472
11,45,-4.811955
45,39,-3.1821895
145,75,-3.1821887
114,67,-3.1821847
111,35,-14.501807
66,32,-25.207195
66,60,-1.4212627
70,1,-2.3385499
129,73,-2.8227239
158,72,2.2938159
7,6,-3.2746506
162,46,-5.0371103
24,25,-3.1821895
46,19,-2.879469
27,90,0.058075204
123,36,-4.231129
82,72,2.2938104
78,33,-18.906673
75,1,-2.3385499
7,44,-3.4851067
141,74,-58.243824
99,21,-3.1821866
138,42,-4.680983
33,58,-1.5599989
107,34,-42.035446
7,77,0.16348062
54,46,-5.0371103
3,86,-12.006964
123,74,-58.243824
120,42,-4.680983
58,20,-3.182185
54,79,-3.8743021
79,8,-2.8735867
75,67,-3.1821887
150,60,-1.4212602
34,33,-18.906681
134,69,-3.1821847
12,44,-3.485109
16,13,-5.241815
115,66,-2.0752227
71,0,-3.5880508
151,7,-0.7467702
130,2,-124.97339
0,43,-3.1821847
87,40,-6.6411695
87,68,-3.3326092
16,51,-1.8036128
126,61,-11.964684
95,53,-3.1821847
147,49,-8.561956
130,30,-2.002162
42,65,-6.9276414
151,40,-6.641172
50,78,-2.4012806
108,61,-11.964682
124,35,-14.5018015
67,27,-4.471131
63,86,-12.006964
130,68,-3.3326108
127,36,-4.231129
8,43,-3.1821868
8,71,-7.9478536
103,80,-2.5611246
159,67,-3.1821868
24,83,-1.3505526
25,20,-3.1821887
124,73,-2.8227296
125,10,-78.55548
80,7,-0.7467702
83,67,-3.1821911
38,64,-1.6859733
35,32,-25.207191
39,1,-2.3385499
96,75,-3.182185
17,12,-3.5667877
139,9,-56.206448
139,37,-6.0924463
104,60,-1.4212545
135,68,-3.332613
4,53,-3.182181
1,21,-3.1821826
4,81,-3.182181
59,85,-1.9399134
152,6,-3.2746487
76,34,-42.03545
92,8,-2.8735886
139,75,-3.1821887
17,50,-0.4281664
112,87,-3.1821895
13,39,-3.1821852
47,33,-18.90668
5,28,-3.8278754
116,61,-11.964685
113,29,-2.0838342
76,6,-3.2746506
68,26,-3.1821938
71,86,-12.006969
131,67,-3.1821892
89,14,-15.187476
92,74,-58.243816
47,71,-7.9478555
44,39,-3.1821892
148,16,-6.047925
29,51,-1.8036143
26,19,-2.8794687
148,44,-3.4851067
113,67,-3.182185
48,13,-5.241815
69,1,-2.338548
84,66,-2.0752227
128,3,-5.59538
157,2,-124.9734
9,38,-53.410892
143,68,-3.3326147
101,15,-6.457616
22,46,-5.0371084
56,40,-6.641172
5,80,-2.561133
64,25,-3.1821876
122,8,-2.8735843
122,36,-4.231126
125,68,-3.3326125
156,65,-6.9276443
81,2,-124.97339
77,33,-18.906677
140,74,-58.24382
22,18,4.6265745
35,90,0.058073297
32,58,-1.5599989
36,27,-4.4711313
136,63,-1.7138822
14,38,-53.410892
144,48,-34.59207
6,27,-4.471125
2,16,-6.047921
57,20,-3.1821868
153,1,-2.338548
97,14,-15.187478
93,73,-2.8227267
36,65,-6.927644
14,76,-3.1821828
15,13,-5.241819
18,45,-4.811957
52,39,-3.1821914
110,22,-3.1821914
118,35,-14.501809
65,47,-3.8814678
73,32,-25.20721
73,60,-1.4212608
32,26,-3.1821895
129,2,-124.97335
90,9,-56.20644
10,37,-6.092445
129,30,-2.0021563
132,62,5.0220127
158,1,-2.3385437
161,33,-18.906675
161,61,-11.964684
45,34,-42.035454
145,70,-3.1821887
26,77,0.16348319
23,45,-4.811955
27,14,-15.187476
85,33,-18.906672
82,1,-2.3385503
129,68,-3.3326128
162,8,-2.8735886
106,21,-3.1821866
102,80,-2.5611286
145,42,-4.680983
6,64,-1.6859695
37,26,-3.1821892
40,58,-1.5599989
27,52,-29.678364
106,54,-46.74619
53,66,-2.0752187
61,79,-3.8743079
86,8,-2.8735867
82,67,-3.1821892
154,0,-3.588051
74,87,-3.1821895
37,64,-1.6859733
141,69,-3.182185
99,16,-6.047923
19,44,-3.4851043
33,53,-3.1821868
114,81,-3.1821847
3,53,-3.1821868
150,27,-4.471129
94,40,-6.641172
91,8,-2.8735867
94,68,-3.3326108
133,61,-11.964684
166,1,-2.338548
15,71,-7.9478536
12,39,-3.1821918
46,33,-18.906677
49,65,-6.9276443
146,69,-3.1821847
115,61,-11.964684
70,86,-12.006968
7,58,-1.5599989
163,7,-0.74677
166,67,-3.1821868
129,88,-15.562331
0,38,-53.41089
7,63,-1.7138822
8,0,-3.588051
87,35,-14.501803
103,9,-56.20645
126,56,-3.1821868
28,51,-1.8036166
28,79,-3.874304
42,60,-1.4212558
123,88,-15.562331
58,34,-42.03545
124,30,-2.0021582
87,7,-0.7467681
82,87,-3.1821918
45,64,-1.685974
8,38,-53.410892
42,32,-25.207216
100,15,-6.457616
103,47,-3.881468
103,75,-3.1821847
38,21,-3.1821866
142,68,-3.3326147
146,9,-56.206448
58,72,2.2938097
55,40,-6.641172
59,9,-56.206448
66,85,-1.9399115
124,68,-3.3326128
151,26,-3.1821914
154,86,-12.006964
38,59,-1.8580538
139,4,-3.3118794
16,70,-3.182185
17,7,-0.7467702
20,39,-3.1821918
112,16,-6.047925
67,41,-3.2402952
75,26,-3.1821914
88,29,-2.0838342
127,22,-3.1821895
130,82,-3.0124724
138,67,-3.1821868
96,14,-15.187478
152,1,-2.3385458
30,51,-1.8036166
92,3,-5.595378
17,45,-4.811957
47,0,-3.588053
43,59,-1.8580544
47,28,-3.8278732
76,1,-2.338548
68,21,-3.1821911
96,61,-11.96468
160,33,-18.906675
160,61,-11.964684
164,2,-124.97339
108,15,-6.457612
104,74,-58.24384
47,66,-2.0752227
4,67,-3.182181
125,34,-42.03545
25,77,0.16348253
26,14,-15.187475
29,46,-5.0371084
63,40,-6.641172
121,23,-3.9590526
76,48,-34.592075
84,33,-18.906683
84,61,-11.964684
155,85,-1.9399134
147,74,-58.243816
39,58,-1.5600008
43,27,-4.471129
5,14,-15.187477
21,38,-53.410892
140,3,-5.59538
143,63,-1.7138822
56,7,-0.7467702
5,47,-3.8814714
64,20,-3.182185
160,1,-2.338548
156,60,-1.4212608
14,0,-3.588047
96,34,-42.03545
93,2,-124.973404
148,30,-2.00216
22,13,-5.241817
117,22,-3.1821852
113,81,-3.182185
51,59,-1.8580563
68,78,-2.4012828
72,47,-3.8814697
117,55,-3.1821826
128,17,-4.519904
72,80,-2.5611305
9,52,-29.678368
35,57,-3.1821868
136,2,-124.97339
93,40,-6.6411676
97,9,-56.206448
165,1,-2.3385477
48,65,-6.9276433
52,34,-42.03546
149,10,-78.55549
122,22,-3.1821873
125,82,-3.0124707
101,67,-3.1821887
165,67,-3.1821847
161,28,-3.8278732
157,87,-3.1821876
10,32,-25.207193
105,41,-3.2402952
102,9,-56.206448
6,41,-3.2402914
144,62,5.022013
122,88,-15.562328
26,72,2.2938128
57,34,-42.035454
60,66,-2.0752227
81,54,-46.74618
161,0,-3.588051
85,28,-3.8278751
137,24,-3.1821868
14,90,0.058077313
18,59,-1.8580563
145,9,-56.206448
148,69,-3.182185
36,84,-3.18219
40,53,-3.1821868
2,68,-3.3326092
73,46,-5.0371103
89,86,-12.006964
129,16,-6.047921
153,86,-12.006964
98,8,-2.8735847
45,20,-3.1821868
19,39,-3.1821873
53,33,-18.906675
111,16,-6.047925
114,48,-34.592068
49,22,-3.1821895
69,73,-2.8227277
66,41,-3.240297
129,82,-3.0124686
162,22,-3.1821914
6,78,-2.4012766
136,88,-15.562331
165,87,-3.1821873
27,66,-2.0752208
123,17,-4.519902
82,53,-3.1821892
7,25,-3.1821895
37,78,-2.4012785
86,27,-4.471131
138,23,-3.9590507
141,55,-3.182185
15,38,-53.410892
107,15,-6.457612
41,52,-29.678364
3,67,-3.1821868
65,72,2.2938097
62,40,-6.641172
123,55,-3.1821868
78,80,-2.5611267
150,41,-3.2402933
94,54,-46.746185
158,26,-3.1821852
15,85,-1.9399134
115,47,-3.8814697
115,75,-3.1821887
119,16,-6.047927
70,72,2.2938058
74,41,-3.2402952
95,1,-2.3385458
91,60,-1.4212627
134,22,-3.1821873
159,1,-2.338548
130,11,-4.4758587
87,49,-8.5619545
151,21,-3.1821887
95,34,-42.035458
166,86,-12.006968
116,22,-3.1821918
50,59,-1.8580544
71,47,-3.881468
130,49,-8.561956
159,48,-34.59207
8,24,-3.1821868
8,52,-29.678371
11,84,-3.1821854
103,61,-11.964685
146,23,-3.9590485
38,7,-0.7467681
25,1,-2.3385499
58,86,-12.00696
66,71,-7.9478574
124,54,-46.746185
124,82,-3.0124705
62,60,-1.4212608
79,79,-3.874306
83,48,-34.59207
146,61,-11.964682
143,29,-2.083836
38,45,-4.811955
35,13,-5.241819
38,73,-2.8227272
138,81,-3.1821868
16,84,-3.1821876
46,58,-1.5600008
139,18,4.62657
104,41,-3.2402914
147,3,-5.595378
4,34,-42.03545
4,62,5.022011
59,66,-2.0752227
155,47,-3.8814697
91,80,-2.5611286
159,21,-3.1821868
155,80,-2.5611286
17,31,-4.773299
17,59,-1.8580544
21,0,-3.5880492
112,68,-3.3326147
47,14,-15.187478
120,81,-3.1821868
68,2,-124.97338
116,42,-4.680985
113,10,-78.55549
75,78,-2.4012806
71,67,-3.1821866
31,12,-3.5667858
131,48,-34.59207
92,55,-3.1821887
135,17,-4.5199003
160,47,-3.8814697
47,80,-2.5611286
148,25,-3.1821876
29,32,-25.207216
26,0,-3.588049
55,65,-6.927646
113,48,-34.592068
87,79,-3.8743021
84,47,-3.8814697
164,54,-46.746178
9,19,-2.879469
43,13,-5.241819
100,87,-3.1821876
143,49,-8.56196
30,7,-0.7467702
109,9,-56.206448
56,21,-3.182183
5,61,-11.964685
64,6,-3.2746506
64,34,-42.035458
125,49,-8.561958
122,17,-4.5199003
127,47,-3.8814697
84,85,-1.9399134
156,46,-5.037112
80,74,-58.24382
77,42,-4.680985
144,24,-3.1821892
21,90,0.058073297
35,71,-7.9478536
36,8,-2.873587
17,79,-3.874306
6,8,-2.8735805
64,72,2.2938097
57,1,-2.338548
72,66,-2.0752227
152,73,-2.8227272
96,86,-12.006964
93,54,-46.746185
97,23,-3.9590507
31,32,-25.207209
136,16,-6.047923
160,86,-12.006966
18,26,-3.1821914
14,85,-1.9399095
52,20,-3.1821887
1,60,-1.4212558
118,16,-6.047925
52,53,-3.1821887
76,73,-2.8227296
73,41,-3.2402952
136,54,-46.74618
165,53,-3.1821847
32,7,-0.7467702
128,74,-58.24382
89,81,-3.1821868
10,18,4.6265745
129,11,-4.475857
105,55,-3.1821847
132,43,-3.1821868
161,42,-4.680983
45,15,-6.457616
26,86,-12.006962
85,14,-15.18747
81,73,-2.8227317
85,42,-4.680981
10,84,-3.1821892
106,2,-124.973404
102,61,-11.964684
145,23,-3.9590526
40,39,-3.1821895
37,7,-0.7467662
114,15,-6.457612
148,55,-3.182185
61,27,-4.471133
57,86,-12.006964
106,35,-14.501807
65,1,-2.338546
61,60,-1.4212652
128,42,-4.680985
85,80,-2.5611286
82,48,-34.592068
153,72,2.2938097
157,41,-3.2402952
41,14,-15.187476
37,73,-2.8227272
138,18,4.626572
19,25,-3.1821873
22,85,-1.9399114
114,62,5.02201
141,50,-0.42816448
122,47,-3.881468
77,72,2.2938066
154,47,-3.8814697
33,6,-3.2746506
94,21,-3.1821868
90,80,-2.5611265
94,49,-8.561956
133,42,-4.680985
20,0,-3.5880532
115,9,-56.206448
136,74,-58.24382
49,46,-5.0371103
46,14,-15.187472
49,74,-58.24382
115,42,-4.680983
70,67,-3.1821887
7,39,-3.1821895
137,49,-8.561958
94,87,-3.1821895
15,24,-3.1821868
134,17,-4.5198984
110,61,-11.964684
166,48,-34.59207
11,13,-5.241815
7,72,2.2938097
50,21,-3.1821868
28,32,-25.207188
28,60,-1.4212627
65,86,-12.00696
123,69,-3.1821868
58,15,-6.457614
66,0,-3.588051
86,79,-3.874304
87,16,-6.047921
158,40,-6.6411657
8,19,-2.8794708
42,13,-5.241815
103,28,-3.827873
23,84,-3.1821854
103,56,-3.1821847
38,2,-124.97341
142,49,-8.56196
145,81,-3.1821887
146,18,4.6265745
58,53,-3.182185
58,81,-3.182185
66,66,-2.0752208
124,49,-8.561956
158,78,-2.4012744
154,67,-3.1821868
79,74,-58.24382
16,46,-5.0371084
98,80,-2.5611267
95,48,-34.592068
151,35,-14.501809
38,40,-6.6411695
116,36,-4.231131
119,68,-3.3326125
20,20,-3.1821892
16,79,-3.8743021
54,14,-15.187472
111,88,-15.562328
120,10,-78.55549
67,22,-3.1821873
75,7,-0.7467702
75,35,-14.501809
130,63,-1.7138822
138,48,-34.59207
95,86,-12.006962
138,76,-3.1821868
30,32,-25.20721
134,37,-6.092445
91,75,-3.1821868
51,20,-3.1821887
4,1,-2.338544
47,9,-56.20645
54,85,-1.9399115
150,66,-2.0752206
75,73,-2.8227296
31,7,-0.7467681
131,43,-3.1821892
160,42,-4.680981
12,78,-2.4012809
107,87,-3.1821895
104,55,-3.1821828
147,17,-4.5199003
163,74,-58.24383
4,48,-34.592064
29,27,-4.471131
25,86,-12.006968
63,21,-3.1821868
163,46,-5.0371084
126,67,-3.1821868
0,77,0.1634851
84,14,-15.18748
84,42,-4.680983
87,74,-58.243824
139,70,-3.1821887
147,55,-3.1821868
155,66,-2.0752208
39,39,-3.1821914
43,8,-2.8735867
100,82,-3.0124667
5,23,-3.9590528
21,19,-2.8794708
116,56,-3.1821892
143,44,-3.4851086
64,1,-2.338548
127,42,-4.680983
156,41,-3.2402952
159,73,-2.8227277
100,54,-46.746166
59,20,-3.1821887
21,85,-1.9399134
55,79,-3.8743021
113,62,5.022011
117,3,-5.5953736
51,40,-6.641172
48,8,-2.8735821
72,28,-3.8278732
80,41,-3.240297
127,89,-3.086322
9,33,-18.906673
35,38,-53.410892
135,74,-58.243816
93,21,-3.1821845
96,81,-3.182185
136,11,-4.4758587
31,27,-4.471131
139,43,-3.1821887
164,73,-2.8227298
52,15,-6.457616
122,3,-5.5953755
125,63,-1.7138824
9,71,-7.9478536
88,73,-2.8227296
165,48,-34.592068
109,61,-11.964684
10,13,-5.241815
44,7,-0.7467662
101,81,-3.1821887
6,22,-3.1821854
105,22,-3.1821873
105,50,-0.42816415
144,43,-3.1821892
60,47,-3.8814697
57,15,-6.457616
81,35,-14.501807
160,72,2.2938097
85,9,-56.20645
18,40,-6.641172
148,50,-0.42816448
26,25,-3.1821873
40,34,-42.035454
121,62,5.022011
76,87,-3.1821895
128,88,-15.562333
153,67,-3.1821868
97,80,-2.5611286
56,46,-5.0371103
19,20,-3.1821847
53,14,-15.1874695
114,29,-2.0838318
122,42,-4.680981
69,54,-46.74617
133,4,-3.3118794
77,67,-3.1821892
162,3,-5.595378
106,16,-6.047923
6,59,-1.8580462
33,1,-2.338548
94,16,-6.047921
14,44,-3.4851024
27,47,-3.8814697
136,69,-3.1821868
65,15,-6.457612
82,34,-42.035454
86,3,-5.595378
37,59,-1.8580538
141,36,-4.2311273
49,13,-5.241819
149,49,-8.561956
106,87,-3.1821892
41,33,-18.90668
65,53,-3.182185
62,21,-3.182185
150,22,-3.1821873
94,35,-14.5018015
129,36,-4.2311273
158,7,-0.74676406
19,77,0.16348319
158,35,-14.5018015
115,23,-3.9590526
161,67,-3.1821868
15,66,-2.0752208
23,79,-3.8743021
115,28,-3.8278751
115,56,-3.1821887
118,88,-15.562331
70,53,-3.1821887
74,22,-3.1821895
94,73,-2.8227296
95,10,-78.55549
134,3,-5.5953755
137,63,-1.7138803
158,73,-2.822723
102,86,-12.006964
129,83,-1.3505526
137,68,-3.3326108
95,15,-6.457614
3,16,-6.047923
98,75,-3.1821868
116,3,-5.59538
50,40,-6.64117
54,9,-56.20644
3,21,-3.1821868
87,2,-124.9734
11,65,-6.927643
8,33,-18.906677
103,42,-4.6809793
146,4,-3.311877
111,55,-3.1821866
58,67,-3.182185
66,80,-2.5611286
124,63,-1.7138822
83,29,-2.0838385
146,42,-4.680981
24,45,-4.811957
38,26,-3.1821892
38,54,-46.74619
0,6,-3.2746487
138,90,0.058073297
16,65,-6.9276423
46,39,-3.1821895
146,75,-3.1821847
104,22,-3.1821854
119,87,-3.1821918
4,43,-3.182181
59,47,-3.8814697
75,21,-3.1821887
155,28,-3.8278732
99,41,-3.2402952
96,9,-56.20644
138,62,5.0220127
163,41,-3.2402952
155,61,-11.964684
20,72,2.2938066
17,40,-6.641172
54,66,-2.075219
4,15,-6.457608
99,74,-58.243816
28,85,-1.9399134
46,86,-12.006964
120,62,5.022011
124,3,-5.595378
55,8,-2.8735867
75,59,-1.8580563
75,87,-3.1821914
79,28,-3.8278732
30,84,-3.1821895
34,53,-3.182185
92,36,-4.231131
131,29,-2.0838385
134,89,-3.0863202
34,58,-1.5599989
29,13,-5.241817
29,41,-3.2402933
55,46,-5.0371103
126,81,-3.1821868
84,28,-3.8278732
87,88,-15.562328
151,60,-1.4212627
108,48,-34.592064
105,16,-6.047923
147,69,-3.1821868
9,0,-3.5880492
42,85,-1.9399095
17,13,-5.241819
108,81,-3.1821828
5,42,-4.680985
63,78,-2.4012806
64,15,-6.457614
67,47,-3.881468
127,28,-3.8278732
88,35,-14.501805
85,3,-5.595378
127,56,-3.1821868
130,88,-15.562331
156,27,-4.471129
80,55,-3.1821887
159,87,-3.1821895
96,29,-2.0838342
144,5,-3.9930806
21,71,-7.9478536
25,40,-6.641172
35,80,-2.5611305
117,17,-4.5198984
47,34,-42.03546
125,2,-124.9734
6,17,-4.5198965
64,53,-3.182185
80,27,-4.471131
35,52,-29.678368
96,67,-3.182185
93,35,-14.501805
97,4,-3.3118794
135,88,-15.562328
160,67,-3.182185
18,7,-0.7467702
48,60,-1.4212577
4,73,-2.8227234
1,41,-3.2402935
52,1,-2.3385499
60,14,-15.187482
117,88,-15.562326
76,54,-46.74619
73,22,-3.1821876
136,35,-14.501805
17,70,-3.1821887
31,79,-3.874304
132,24,-3.1821868
128,83,-1.3505565
9,90,0.058073297
13,59,-1.8580494
105,36,-4.231126
113,21,-3.182185
68,46,-5.037112
89,34,-42.03545
85,23,-3.9590487
48,0,-3.5880487
10,65,-6.9276447
44,59,-1.8580538
105,74,-58.243828
26,39,-3.1821873
40,20,-3.1821868
36,79,-3.874304
106,11,-4.4758587
113,87,-3.1821876
145,4,-3.3118794
61,8,-2.8735888
148,64,-1.6859759
69,21,-3.1821868
128,23,-3.9590528
85,61,-11.964684
153,53,-3.1821868
157,22,-3.1821876
101,35,-14.501809
40,86,-12.006968
19,6,-3.2746487
22,66,-2.0752187
56,60,-1.4212608
114,43,-3.1821847
122,28,-3.827871
122,56,-3.1821847
77,53,-3.1821892
77,81,-3.1821892
141,3,-5.595378
98,41,-3.2402952
36,19,-2.879471
32,78,-2.4012806
94,2,-124.97338
94,30,-2.00216
133,23,-3.9590526
136,83,-1.3505545
6,47,-3.8814662
115,18,4.62657
49,27,-4.471129
49,55,-3.1821868
123,3,-5.595378
2,36,-4.231126
57,40,-6.641172
153,21,-3.1821868
78,28,-3.8278732
70,48,-34.59207
7,20,-3.1821868
86,22,-3.1821914
133,89,-3.086324
15,5,-3.9930787
15,33,-18.906677
18,65,-6.927646
110,42,-4.680983
137,30,-2.00216
44,79,-3.874304
166,29,-2.0838342
65,67,-3.182185
28,41,-3.240297
66,9,-56.206448
129,22,-3.1821876
86,60,-1.4212627
86,88,-15.562331
90,29,-2.0838318
158,21,-3.1821826
41,85,-1.9399134
45,54,-46.746174
103,37,-6.092445
23,65,-6.927643
142,30,-2.00216
145,90,0.058073297
58,62,5.0220127
66,47,-3.8814697
158,59,-1.8580494
158,87,-3.1821852
162,28,-3.8278751
151,16,-6.047927
98,61,-11.964684
95,29,-2.0838318
137,82,-3.0124686
27,72,2.2938097
24,40,-6.64117
119,49,-8.56196
116,17,-4.519904
53,86,-12.006962
16,60,-1.4212589
74,74,-58.24382
123,23,-3.9590507
119,82,-3.0124745
78,48,-34.59207
75,16,-6.047925
130,44,-3.4851067
37,84,-3.1821892
138,29,-2.0838342
95,67,-3.1821847
96,4,-3.3118794
99,36,-4.2311296
30,13,-5.241819
33,73,-2.8227277
138,57,-3.1821868
141,89,-3.086322
54,61,-11.964684
3,73,-2.8227277
4,10,-78.55548
150,47,-3.8814662
75,54,-46.74619
91,28,-3.8278732
30,79,-3.874306
12,59,-1.8580569
46,53,-3.1821868
104,36,-4.231126
107,68,-3.3326108
108,5,-3.9930768
146,89,-3.0863202
29,8,-2.8735843
63,2,-124.97339
126,43,-3.1821868
163,27,-4.471131
126,48,-34.59207
0,58,-1.5599971
83,86,-12.006973
84,23,-3.9590526
87,55,-3.1821847
126,76,-3.1821868
108,43,-3.1821828
28,71,-7.9478555
147,36,-4.2311273
39,20,-3.1821887
39,48,-34.59207
42,80,-2.5611243
24,60,-1.4212608
124,17,-4.5199003
147,64,-1.6859721
79,47,-3.8814697
127,23,-3.9590507
156,22,-3.1821895
8,58,-1.5599989
103,67,-3.1821847
100,35,-14.501805
159,54,-46.746178
34,72,2.2938058
96,24,-3.182185
59,1,-2.3385499
21,66,-2.0752208
55,60,-1.4212608
116,75,-3.1821892
117,12,-3.5667837
124,88,-15.562331
72,9,-56.206448
151,46,-5.0371103
80,22,-3.1821914
9,14,-15.18747
35,19,-2.8794727
35,47,-3.8814697
38,79,-3.874304
16,90,0.058075204
30,2,-124.97342
96,62,5.022009
135,55,-3.1821866
135,83,-1.3505524
139,24,-3.1821887
51,87,-3.1821914
4,68,-3.3326092
67,61,-11.964682
125,44,-3.485109
84,80,-2.5611267
152,21,-3.1821828
9,80,-2.5611267
88,54,-46.746178
160,15,-6.457614
17,65,-6.927646
109,42,-4.680983
47,20,-3.1821868
9,85,-1.9399115
43,79,-3.874304
105,31,-4.7732973
147,84,-3.1821895
68,8,-2.8735888
64,67,-3.182185
113,16,-6.047923
68,41,-3.2402987
152,68,-3.332613
131,82,-3.0124707
89,29,-2.0838342
160,53,-3.182185
160,81,-3.182185
164,22,-3.1821918
18,21,-3.1821887
47,86,-12.006969
148,31,-4.773301
26,6,-3.2746487
26,34,-42.035458
121,43,-3.1821887
76,68,-3.3326108
136,49,-8.561956
39,78,-2.4012806
140,23,-3.9590528
97,61,-11.964684
2,2,-124.9734
101,30,-2.00216
56,27,-4.471131
19,1,-2.3385458
52,86,-12.006971
5,67,-3.1821892
56,55,-3.182183
77,15,-6.457614
122,23,-3.9590485
77,48,-34.59207
14,20,-3.1821828
105,88,-15.562332
140,89,-3.0863242
32,73,-2.8227296
114,10,-78.55549
14,53,-3.1821828
64,87,-3.1821876
128,37,-6.0924478
85,75,-3.182185
93,60,-1.4212577
89,49,-8.561956
48,85,-1.9399076
149,30,-2.00216
106,68,-3.332611
110,37,-6.0924463
44,74,-58.24382
65,34,-42.035446
157,74,-58.243828
129,17,-4.5198965
158,16,-6.047921
23,27,-4.471125
161,48,-34.59207
102,29,-2.0838342
49,41,-3.2402952
27,1,-2.338548
23,60,-1.4212583
57,54,-46.746174
115,37,-6.0924463
118,69,-3.1821887
74,3,-5.595378
33,39,-3.1821895
133,75,-3.1821887
94,82,-3.0124705
137,44,-3.4851067
158,54,-46.746174
37,13,-5.241817
98,56,-3.1821868
2,88,-15.562328
58,1,-2.338546
53,81,-3.1821847
86,74,-58.243824
154,15,-6.457616
11,46,-5.0371084
8,14,-15.187474
37,79,-3.8743021
19,59,-1.8580519
114,68,-3.3326092
111,36,-4.2311277
45,73,-2.8227277
70,2,-124.973404
66,61,-11.964684
129,74,-58.243813
83,10,-78.55549
94,55,-3.1821868
146,51,-1.8036143
162,47,-3.8814697
38,35,-14.501807
46,20,-3.1821868
49,80,-2.5611286
28,0,-3.588053
67,8,-2.8735862
75,2,-124.973404
7,45,-4.811957
99,22,-3.1821892
95,81,-3.1821847
138,43,-3.1821868
163,22,-3.1821873
54,47,-3.8814697
99,55,-3.1821866
3,87,-3.1821895
28,66,-2.0752227
123,75,-3.1821868
120,43,-3.1821868
58,21,-3.182185
54,80,-2.5611305
75,40,-6.641172
75,68,-3.3326128
79,9,-56.206448
150,61,-11.964682
34,34,-42.035458
134,70,-3.1821847
16,14,-15.187469
29,22,-3.1821854
55,27,-4.471129
151,8,-2.8735886
126,62,5.0220127
84,9,-56.206448
87,69,-3.1821847
151,41,-3.240297
13,20,-3.1821826
108,29,-2.0838318
147,50,-0.42816448
42,66,-2.0752165
16,85,-1.9399115
108,62,5.0220127
67,28,-3.827873
63,87,-3.1821895
127,9,-56.206448
88,16,-6.047923
127,37,-6.0924463
130,69,-3.1821868
159,68,-3.3326128
43,41,-3.240297
21,52,-29.678368
25,21,-3.1821887
59,15,-6.457614
116,89,-3.0863242
47,15,-6.457614
124,74,-58.243813
125,11,-4.4758606
80,8,-2.8735867
35,33,-18.906677
96,48,-34.59207
96,76,-3.182185
135,69,-3.1821866
139,38,-53.41089
160,48,-34.59207
104,61,-11.964682
51,73,-2.8227315
4,54,-46.746162
1,22,-3.1821852
4,82,-3.0124645
59,86,-12.006968
117,69,-3.1821826
76,35,-14.5018015
73,3,-5.595378
9,66,-2.0752208
139,76,-3.1821887
136,44,-3.4851067
31,60,-1.4212602
112,88,-15.562331
13,40,-6.6411657
5,29,-2.0838366
1,88,-15.562326
113,30,-2.0021582
68,27,-4.471133
131,68,-3.3326144
89,15,-6.457612
92,75,-3.1821887
85,4,-3.3118794
47,72,2.2938058
44,40,-6.6411715
92,80,-2.5611305
105,83,-1.3505524
26,20,-3.1821847
144,76,-3.1821892
40,29,-2.0838342
113,68,-3.3326108
148,17,-4.519902
148,45,-4.811959
48,14,-15.187477
69,2,-124.97337
161,14,-15.187472
128,4,-3.3118815
157,3,-5.595378
101,16,-6.047927
148,83,-1.3505526
165,16,-6.047921
26,58,-1.559999
22,47,-3.881468
19,15,-6.457612
56,41,-3.2402952
114,24,-3.1821847
122,9,-56.206448
122,37,-6.092445
125,69,-3.1821873
77,34,-42.03545
77,62,5.0220113
81,3,-5.59538
140,75,-3.1821873
32,59,-1.8580544
36,28,-3.8278735
94,11,-4.4758587
14,39,-3.1821854
56,79,-3.874304
136,64,-1.6859759
6,28,-3.8278673
49,36,-4.2311273
122,75,-3.1821847
2,17,-4.5199003
57,21,-3.1821868
153,2,-124.9734
78,9,-56.20644
93,74,-58.24383
33,34,-42.035454
14,77,0.1634851
15,14,-15.187472
18,46,-5.0371103
49,8,-2.8735847
110,23,-3.9590526
65,48,-34.59207
129,3,-5.595374
86,41,-3.240297
86,69,-3.1821887
90,10,-78.55549
129,31,-4.773299
132,63,-1.7138822
149,82,-3.0124705
158,2,-124.97338
161,62,5.0220127
41,66,-2.0752208
45,35,-14.501805
145,71,-7.9478574
23,46,-5.0371084
27,15,-6.457614
66,28,-3.8278751
82,2,-124.97337
129,69,-3.182185
158,68,-3.3326094
162,9,-56.206448
106,22,-3.1821892
102,81,-3.1821868
6,65,-6.927641
37,27,-4.471129
27,53,-3.1821868
24,21,-3.1821868
119,30,-2.002162
53,67,-3.1821847
74,55,-3.1821868
86,9,-56.206448
82,68,-3.3326144
78,29,-2.0838342
74,88,-15.562331
37,65,-6.9276447
138,10,-78.55549
99,17,-4.5199003
19,45,-4.811955
95,76,-3.1821847
33,54,-46.746174
114,82,-3.0124664
138,38,-53.410892
141,70,-3.182185
54,42,-4.680983
3,54,-46.74618
3,82,-3.0124686
150,28,-3.827871
94,41,-3.2402952
91,9,-56.206448
49,66,-2.0752208
12,40,-6.6411724
46,34,-42.035454
107,49,-8.561958
107,77,0.16348253
4,29,-2.0838299
146,70,-3.1821847
115,62,5.022011
62,74,-58.243828
126,24,-3.1821868
70,87,-3.1821914
7,59,-1.8580525
163,8,-2.8735843
166,68,-3.3326108
129,89,-3.0863183
0,39,-3.1821873
7,64,-1.6859759
84,4,-3.3118794
46,72,2.2938097
87,36,-4.231126
126,57,-3.1821868
28,52,-29.678368
28,80,-2.5611305
42,61,-11.96468
39,29,-2.083836
123,89,-3.086322
58,35,-14.5018015
147,45,-4.811957
79,23,-3.9590526
127,4,-3.3118794
159,35,-14.5018015
8,39,-3.1821895
42,33,-18.906675
100,16,-6.047925
103,76,-3.1821847
142,69,-3.1821887
58,73,-2.8227258
55,41,-3.240297
59,10,-78.55549
116,84,-3.1821918
124,69,-3.1821868
151,27,-4.4711328
80,3,-5.595378
151,55,-3.1821887
8,86,-12.006968
38,60,-1.4212602
35,28,-3.8278751
96,43,-3.182185
16,71,-7.9478536
17,8,-2.8735867
112,17,-4.519904
135,64,-1.6859733
139,5,-3.9930806
4,49,-8.561953
67,42,-4.680981
130,83,-1.3505545
88,30,-2.00216
152,2,-124.97337
96,15,-6.457612
92,4,-3.3118794
17,46,-5.0371103
109,23,-3.9590526
112,83,-1.3505526
47,1,-2.3385499
43,60,-1.4212627
47,29,-2.083836
67,80,-2.5611265
68,17,-4.519904
76,2,-124.9734
68,22,-3.1821938
131,63,-1.7138824
89,10,-78.55548
160,34,-42.035458
160,62,5.0220118
104,75,-3.1821828
164,3,-5.59538
47,67,-3.1821868
44,35,-14.501803
148,12,-3.5667877
25,78,-2.4012806
26,15,-6.457612
29,47,-3.881468
121,24,-3.1821887
76,49,-8.561958
84,34,-42.035458
161,9,-56.206448
147,75,-3.1821868
39,59,-1.8580563
140,4,-3.3118815
97,42,-4.680983
1,74,-58.243824
101,11,-4.4758606
26,53,-3.1821847
56,8,-2.8735867
52,67,-3.1821887
56,36,-4.2311273
5,48,-34.59207
156,61,-11.964684
77,29,-2.0838366
14,1,-2.338544
140,70,-3.1821873
22,14,-15.187475
117,23,-3.9590464
32,54,-46.746166
113,82,-3.0124686
48,28,-3.827869
56,74,-58.243828
72,48,-34.592075
128,18,4.6265697
85,56,-3.182185
136,3,-5.595378
93,41,-3.2402935
93,69,-3.1821845
97,10,-78.55549
165,2,-124.9734
40,81,-3.1821868
48,66,-2.0752165
49,3,-5.595378
52,35,-14.501809
110,18,4.62657
149,11,-4.4758587
65,43,-3.182185
128,56,-3.1821892
165,68,-3.3326092
128,89,-3.0863242
157,88,-15.562335
161,29,-2.0838342
105,42,-4.680981
102,10,-78.55549
6,42,-4.6809793
122,89,-3.0863202
26,73,-2.8227272
23,41,-3.2402933
57,35,-14.501805
60,67,-3.1821868
81,55,-3.1821892
78,23,-3.9590507
137,25,-3.1821895
81,88,-15.562333
18,60,-1.4212627
106,17,-4.5199003
145,38,-53.41089
36,85,-1.9399135
37,22,-3.1821892
40,54,-46.746178
2,69,-3.1821847
57,73,-2.8227296
61,42,-4.680985
53,62,5.0220137
86,55,-3.1821887
153,87,-3.1821895
11,27,-4.471127
37,60,-1.4212602
19,40,-6.6411676
114,49,-8.5619545
111,17,-4.5199003
114,77,0.1634851
69,74,-58.243824
66,42,-4.680983
162,23,-3.9590526
6,79,-3.8743002
133,57,-3.1821887
27,67,-3.1821868
115,24,-3.1821887
46,1,-2.338548
49,61,-11.964684
28,9,-56.206448
123,18,4.626572
78,43,-3.1821868
7,26,-3.1821895
7,54,-46.746178
138,24,-3.1821868
163,3,-5.5953755
107,16,-6.047921
54,28,-3.8278751
103,5,-3.9930787
3,68,-3.3326108
65,73,-2.8227239
28,47,-3.8814697
62,41,-3.2402952
120,24,-3.1821868
123,56,-3.1821868
58,30,-2.00216
78,81,-3.1821868
75,49,-8.561958
150,42,-4.680981
158,27,-4.4711246
87,3,-5.5953755
34,15,-6.457614
134,51,-1.8036143
15,86,-12.006964
42,28,-3.827867
148,36,-4.231129
115,76,-3.1821887
58,68,-3.3326128
150,80,-2.5611284
91,61,-11.964684
159,2,-124.97337
130,12,-3.5667877
87,50,-0.42816415
151,22,-3.1821914
95,35,-14.501803
108,38,-53.410885
147,31,-4.773299
116,23,-3.9590528
16,66,-2.075219
50,60,-1.4212608
71,48,-34.592068
63,68,-3.3326108
130,50,-0.4281664
75,22,-3.1821914
127,18,4.626572
8,53,-3.1821868
159,49,-8.561958
30,47,-3.8814697
25,2,-124.97339
58,87,-3.1821876
46,87,-3.1821895
124,55,-3.1821868
124,83,-1.3505545
79,80,-2.5611286
83,49,-8.56196
143,30,-2.00216
35,14,-15.187472
38,74,-58.243824
96,57,-3.182185
135,50,-0.42816415
139,19,-2.8794708
160,29,-2.0838342
104,42,-4.6809793
4,35,-14.501796
1,3,-5.5953736
4,63,-1.7138762
59,67,-3.1821887
63,36,-4.2311273
125,30,-2.0021582
155,48,-34.59207
152,16,-6.0479193
76,16,-6.047923
139,57,-3.1821887
21,1,-2.338548
17,60,-1.4212627
112,69,-3.1821868
5,10,-78.55549
68,3,-5.59538
116,43,-3.1821892
113,11,-4.4758587
71,68,-3.332611
131,49,-8.56196
88,87,-3.1821895
92,56,-3.1821887
135,18,4.6265726
47,53,-3.1821868
47,81,-3.1821868
147,89,-3.086322
148,26,-3.1821876
26,1,-2.3385458
29,61,-11.964678
55,66,-2.0752227
113,49,-8.561956
68,74,-58.243816
84,48,-34.59207
164,55,-3.1821892
161,23,-3.9590507
127,76,-3.1821868
156,75,-3.1821868
9,20,-3.1821868
100,88,-15.562327
164,88,-15.562333
30,8,-2.8735867
26,67,-3.1821847
121,76,-3.1821887
22,28,-3.827871
56,22,-3.1821856
5,62,5.0220113
77,10,-78.55549
125,50,-0.42816672
122,18,4.6265745
84,86,-12.006968
80,75,-3.1821887
77,43,-3.1821892
152,36,-4.231126
140,56,-3.1821873
101,63,-1.7138803
144,25,-3.1821918
32,40,-6.64117
36,9,-56.20644
117,37,-6.0924435
17,80,-2.5611267
56,88,-15.562331
6,9,-56.20644
6,37,-6.092443
57,2,-124.97337
152,74,-58.243824
153,11,-4.4758606
93,55,-3.1821845
18,27,-4.471129
14,86,-12.006962
48,80,-2.5611243
110,4,-3.3118794
149,25,-3.1821895
118,17,-4.519902
65,29,-2.0838342
76,74,-58.243813
73,42,-4.680983
136,55,-3.1821868
32,8,-2.8735867
128,75,-3.1821892
89,82,-3.0124705
86,50,-0.4281664
129,12,-3.5667858
132,44,-3.4851086
161,43,-3.1821868
150,0,-3.588049
45,16,-6.047925
26,87,-3.1821873
81,74,-58.243816
129,50,-0.42816257
161,81,-3.1821868
10,85,-1.9399114
106,3,-5.5953755
102,62,5.0220127
145,24,-3.1821887
37,8,-2.8735843
27,34,-42.035454
57,87,-3.1821895
61,28,-3.8278754
106,36,-4.2311277
61,61,-11.964685
85,81,-3.182185
82,49,-8.56196
157,42,-4.680983
37,46,-5.0371103
37,74,-58.243828
41,15,-6.457614
19,26,-3.1821873
138,19,-2.8794708
114,63,-1.7138782
141,51,-1.8036166
3,35,-14.501805
3,63,-1.7138803
154,48,-34.592068
150,9,-56.206448
94,22,-3.1821895
90,81,-3.1821847
94,50,-0.4281664
133,43,-3.1821887
20,1,-2.3385503
115,10,-78.55549
111,69,-3.1821866
158,22,-3.1821852
49,47,-3.8814697
12,21,-3.1821892
46,15,-6.457616
49,75,-3.1821868
27,86,-12.006964
70,35,-14.501809
107,58,-1.5600008
115,43,-3.1821887
70,68,-3.3326128
7,40,-6.641172
134,18,4.6265745
91,56,-3.1821868
162,80,-2.5611305
166,49,-8.561956
0,20,-3.1821847
7,73,-2.8227296
50,22,-3.1821895
46,81,-3.1821868
28,33,-18.90668
28,61,-11.964684
123,70,-3.1821868
58,16,-6.047923
79,4,-3.3118794
86,80,-2.5611286
8,20,-3.1821868
42,14,-15.187473
99,88,-15.562332
103,57,-3.1821847
142,50,-0.4281664
38,3,-5.5953755
58,54,-46.74616
55,22,-3.1821895
58,82,-3.0124686
66,67,-3.1821887
151,3,-5.595378
124,50,-0.42816448
154,68,-3.3326147
79,75,-3.1821887
16,47,-3.8814678
151,36,-4.231129
95,49,-8.561956
143,25,-3.1821914
38,41,-3.2402952
35,9,-56.206448
116,37,-6.0924478
20,21,-3.1821892
16,80,-2.5611267
111,89,-3.086322
119,69,-3.1821892
135,45,-4.811957
67,23,-3.9590504
75,8,-2.8735867
88,11,-4.4758587
130,64,-1.6859759
151,74,-58.24382
138,49,-8.561958
95,87,-3.1821873
30,33,-18.906683
91,76,-3.1821868
17,27,-4.471131
51,21,-3.1821887
112,64,-1.6859721
47,10,-78.55549
54,86,-12.006964
67,89,-3.086322
75,74,-58.24382
31,8,-2.8735862
131,44,-3.485111
160,43,-3.182185
163,75,-3.1821847
107,88,-15.562331
104,56,-3.1821828
47,48,-34.59207
25,59,-1.8580563
25,87,-3.1821914
29,28,-3.827871
63,22,-3.1821895
121,5,-3.9930806
76,30,-2.00216
84,15,-6.457614
84,43,-3.1821868
139,71,-7.9478555
155,67,-3.1821868
147,56,-3.1821868
105,3,-5.5953755
39,40,-6.641172
39,68,-3.3326147
43,9,-56.206448
5,24,-3.1821892
21,20,-3.1821868
60,28,-3.8278751
100,83,-1.3505507
140,13,-5.241819
143,45,-4.811959
56,17,-4.5199003
5,57,-3.1821892
127,43,-3.1821868
84,81,-3.1821868
156,42,-4.680983
159,74,-58.243816
13,73,-2.8227248
40,15,-6.457614
140,51,-1.8036189
21,86,-12.006964
117,4,-3.3118749
113,63,-1.7138803
117,32,-25.207216
51,41,-3.240297
48,9,-56.206448
72,29,-2.083838
127,90,0.058075204
9,34,-42.03545
135,75,-3.1821866
96,82,-3.0124686
93,50,-0.4281619
136,12,-3.5667877
164,74,-58.243816
48,47,-3.8814662
48,75,-3.1821845
52,16,-6.047927
109,90,0.058073297
125,64,-1.6859747
9,72,2.2938097
165,49,-8.5619545
109,62,5.022011
128,70,-3.1821892
10,14,-15.187475
105,23,-3.9590504
101,82,-3.0124686
6,23,-3.9590466
105,51,-1.8036143
144,44,-3.485109
122,70,-3.1821847
60,48,-34.59207
57,16,-6.047925
81,36,-4.231129
78,4,-3.3118794
152,88,-15.562325
160,73,-2.8227296
36,61,-11.964682
85,10,-78.55549
81,69,-3.1821892
18,41,-3.240297
148,51,-1.8036166
105,89,-3.086322
145,19,-2.8794708
40,35,-14.501805
37,3,-5.5953755
2,50,-0.42816415
61,23,-3.9590547
153,35,-14.5018015
153,68,-3.3326108
18,79,-3.874306
97,81,-3.1821868
149,77,0.16348253
11,36,-4.231126
37,41,-3.2402952
56,47,-3.8814678
19,21,-3.1821847
53,15,-6.457614
110,89,-3.086324
114,30,-2.0021582
114,58,-1.5599971
69,55,-3.1821868
66,23,-3.9590526
69,83,-1.3505526
133,5,-3.9930806
77,68,-3.3326125
129,64,-1.6859702
162,4,-3.3118794
6,60,-1.4212564
33,2,-124.97337
133,38,-53.410892
27,48,-34.59207
115,5,-3.9930806
49,42,-4.680983
27,81,-3.1821868
86,4,-3.3118794
7,7,-0.7467683
7,35,-14.501805
138,5,-3.9930787
162,75,-3.1821887
149,50,-0.4281664
106,88,-15.562328
41,34,-42.035454
3,49,-8.561956
28,28,-3.827877
62,22,-3.1821876
65,82,-3.0124667
150,23,-3.9590485
142,12,-3.5667877
86,75,-3.1821887
158,8,-2.8735802
158,36,-4.231126
15,67,-3.1821868
42,9,-56.206448
107,44,-3.4851067
118,89,-3.086324
115,57,-3.1821887
58,49,-8.561956
74,23,-3.9590507
150,89,-3.0863202
137,64,-1.685974
91,42,-4.680983
158,74,-58.24383
129,84,-3.1821876
87,31,-4.7732973
16,42,-4.680981
95,16,-6.047923
95,44,-3.4851043
116,4,-3.3118815
119,64,-1.6859804
50,41,-3.240297
71,29,-2.0838337
130,31,-4.773299
75,3,-5.595378
11,66,-2.0752168
8,34,-42.035454
159,30,-2.0021582
138,44,-3.4851067
30,28,-3.8278732
24,74,-58.24382
124,64,-1.685974
79,61,-11.964684
83,30,-2.002162
8,72,2.2938097
143,11,-4.4758606
34,86,-12.006968
38,55,-3.1821866
139,0,-3.588053
46,40,-6.64117
146,76,-3.1821847
104,23,-3.9590466
107,83,-1.3505526
4,44,-3.4851024
59,48,-34.59207
63,17,-4.5199003
155,29,-2.0838342
151,88,-15.562331
96,10,-78.55549
39,2,-124.97339
126,63,-1.7138803
84,10,-78.55549
20,73,-2.8227298
17,41,-3.240297
21,10,-78.55549
112,50,-0.42816448
155,62,5.0220127
120,63,-1.7138822
21,15,-6.457616
67,75,-3.1821847
116,52,-29.67837
79,29,-2.083836
75,88,-15.562335
131,30,-2.002162
92,37,-6.0924463
134,90,0.058075406
47,62,5.0220118
148,7,-0.7467702
25,73,-2.8227296
29,42,-4.680981
55,47,-3.8814697
84,29,-2.083836
132,5,-3.9930787
164,36,-4.231129
147,70,-3.1821868
105,17,-4.5199003
9,1,-2.3385499
9,29,-2.0838342
100,69,-3.182185
164,69,-3.1821892
29,80,-2.5611284
108,82,-3.0124645
56,3,-5.595378
5,43,-3.1821892
64,16,-6.047923
84,67,-3.1821868
127,57,-3.1821868
159,88,-15.562331
80,56,-3.1821887
77,24,-3.1821892
9,67,-3.1821868
40,1,-2.338548
140,65,-6.9276476
144,6,-3.2746527
35,81,-3.1821868
117,18,4.626577
5,81,-3.1821892
6,18,4.6265764
152,55,-3.1821828
152,83,-1.3505505
135,89,-3.086324
93,36,-4.231126
97,5,-3.9930787
160,68,-3.3326108
18,8,-2.8735867
14,67,-3.1821828
48,61,-11.96468
1,42,-4.6809793
149,6,-3.2746506
26,21,-3.1821847
117,89,-3.086318
76,55,-3.1821868
73,23,-3.9590507
136,36,-4.2311273
31,80,-2.5611284
132,25,-3.1821895
89,63,-1.7138822
128,84,-3.1821918
105,37,-6.092445
89,35,-14.5018015
85,24,-3.182185
10,66,-2.0752187
145,5,-3.9930806
14,35,-14.5018
44,60,-1.4212602
102,43,-3.1821868
105,75,-3.1821847
36,80,-2.561131
40,49,-8.561956
106,12,-3.5667858
113,88,-15.562335
61,9,-56.206448
57,68,-3.3326128
69,22,-3.1821895
128,24,-3.1821892
85,62,5.0220137
82,30,-2.002162
157,23,-3.9590507
40,87,-3.1821895
37,55,-3.1821866
141,32,-25.20721
19,7,-0.7467681
19,35,-14.501803
22,67,-3.1821847
114,44,-3.4851043
3,44,-3.4851067
154,29,-2.0838342
141,4,-3.3118794
98,42,-4.680983
32,79,-3.8743021
94,3,-5.595378
90,62,5.0220118
94,31,-4.773299
133,24,-3.1821887
19,73,-2.8227272
158,3,-5.5953736
115,19,-2.8794727
49,28,-3.8278713
45,87,-3.1821895
49,56,-3.1821868
123,4,-3.3118794
57,41,-3.240297
70,49,-8.561958
7,21,-3.1821868
133,90,0.058073297
166,30,-2.00216
15,34,-42.035454
110,43,-3.1821887
107,11,-4.4758606
50,3,-5.595378
28,14,-15.187476
28,42,-4.680983
65,68,-3.3326108
123,51,-1.8036166
78,76,-3.1821868
129,23,-3.9590487
86,61,-11.964687
86,89,-3.086324
8,1,-2.338548
41,86,-12.006964
45,55,-3.1821868
103,38,-53.41089
142,31,-4.773301
146,0,-3.588049
58,63,-1.7138784
66,48,-34.59207
124,31,-4.773299
162,29,-2.083836
158,88,-15.562326
151,17,-4.519902
16,28,-3.8278713
98,62,5.022011
95,30,-2.0021582
143,6,-3.2746525
27,73,-2.8227277
24,41,-3.2402952
38,22,-3.1821892
116,18,4.6265697
119,50,-0.42816862
53,87,-3.1821873
16,61,-11.96468
74,75,-3.1821868
119,83,-1.3505565
130,45,-4.811957
75,17,-4.519902
37,85,-1.9399114
138,30,-2.002162
95,68,-3.332611
96,5,-3.9930787
99,37,-6.092445
30,14,-15.187482
138,58,-1.5599989
51,2,-124.973404
54,62,5.0220127
3,74,-58.24382
112,45,-4.811959
150,48,-34.592068
75,55,-3.1821887
30,80,-2.5611305
131,25,-3.1821918
160,24,-3.182185
12,60,-1.4212633
107,69,-3.1821868
104,37,-6.092445
108,6,-3.2746487
146,90,0.058075406
163,56,-3.1821847
125,25,-3.18219
29,9,-56.206448
25,68,-3.3326147
63,3,-5.595378
126,44,-3.4851067
83,82,-3.0124745
126,49,-8.561956
0,59,-1.8580519
83,87,-3.1821938
84,24,-3.1821868
87,56,-3.1821847
147,37,-6.0924463
108,44,-3.4851043
105,12,-3.566784
147,65,-6.9276443
39,21,-3.1821887
39,49,-8.56196
42,81,-3.1821826
5,5,-3.9930806
55,89,-3.086322
127,24,-3.1821868
156,23,-3.9590507
159,55,-3.1821868
100,36,-4.231129
39,87,-3.1821914
96,25,-3.1821876
59,2,-124.973404
21,67,-3.1821868
55,61,-11.964684
113,44,-3.4851067
116,76,-3.1821892
117,13,-5.241813
72,10,-78.55549
68,69,-3.1821911
80,23,-3.9590526
127,71,-7.9478536
9,15,-6.457614
35,48,-34.592075
96,63,-1.7138803
93,31,-4.7732973
30,3,-5.595378
135,84,-3.1821892
139,25,-3.1821914
51,88,-15.562331
48,56,-3.1821845
149,1,-2.338548
1,37,-6.0924435
125,45,-4.8119583
152,22,-3.1821854
9,53,-3.1821868
9,81,-3.1821868
88,55,-3.1821868
165,30,-2.0021582
17,66,-2.0752227
109,43,-3.1821887
9,86,-12.006964
43,80,-2.5611267
105,32,-25.207209
6,4,-3.3118732
68,9,-56.206448
64,68,-3.3326108
125,83,-1.3505546
152,69,-3.1821828
160,54,-46.746174
89,30,-2.0021582
160,82,-3.0124686
18,22,-3.1821914
47,87,-3.1821895
44,55,-3.1821866
105,70,-3.1821847
26,7,-0.7467681
145,0,-3.588053
121,44,-3.4851086
148,32,-25.207188
61,4,-3.3118815
76,69,-3.1821868
153,49,-8.561958
97,62,5.0220127
97,90,0.058075204
118,50,-0.4281664
56,28,-3.8278713
19,2,-124.9734
52,87,-3.1821914
56,56,-3.182183
114,39,-3.1821873
77,16,-6.047923
73,75,-3.182185
69,36,-4.231129
69,64,-1.685974
132,77,0.16348062
77,49,-8.561958
14,21,-3.1821828
140,90,0.058073096
98,37,-6.0924463
32,74,-58.24382
27,29,-2.0838342
106,31,-4.7732973
6,43,-3.1821828
49,23,-3.9590507
64,88,-15.562327
85,76,-3.182185
93,61,-11.964684
7,16,-6.047923
41,10,-78.55549
86,18,4.62657
141,46,-5.0371103
48,86,-12.006965
149,31,-4.773299
106,69,-3.1821866
110,38,-53.410892
62,3,-5.595378
65,63,-1.7138765
157,75,-3.182185
129,18,4.626574
86,56,-3.1821887
23,28,-3.8278692
19,87,-3.1821873
158,17,-4.5198984
150,6,-3.2746487
161,49,-8.561958
41,81,-3.1821868
142,26,-3.1821914
23,61,-11.964682
118,70,-3.1821887
115,38,-53.410892
74,4,-3.3118794
137,45,-4.811957
94,83,-1.3505545
158,55,-3.1821826
37,14,-15.187475
50,17,-4.519902
98,57,-3.1821868
2,89,-3.0863202
95,25,-3.1821873
58,2,-124.97336
119,45,-4.81196
53,82,-3.0124664
74,70,-3.1821868
11,47,-3.881468
8,15,-6.457616
37,80,-2.5611265
138,25,-3.1821895
111,37,-6.092445
66,62,5.022011
124,45,-4.811957
83,11,-4.4758625
146,52,-29.678368
38,36,-4.2311277
20,16,-6.047925
46,21,-3.1821868
46,49,-8.561958
107,64,-1.6859721
146,85,-1.9399114
67,9,-56.206448
62,89,-3.086322
126,39,-3.1821895
7,46,-5.037112
155,10,-78.55549
95,82,-3.0124683
163,23,-3.9590504
20,54,-46.746178
17,22,-3.1821914
20,82,-3.0124726
3,88,-15.562331
99,56,-3.1821866
28,67,-3.1821887
123,76,-3.1821868
120,44,-3.4851067
54,81,-3.1821868
79,10,-78.55549
75,69,-3.1821887
79,38,-53.41089
34,35,-14.501805
131,11,-4.4758625
92,18,4.62657
134,71,-7.9478536
100,31,-4.773301
29,23,-3.9590485
55,28,-3.8278732
58,88,-15.562327
151,9,-56.206448
87,70,-3.1821847
151,42,-4.680983
13,21,-3.1821826
147,51,-1.8036166
104,89,-3.0863202
9,10,-78.55549
39,35,-14.501809
16,86,-12.006964
108,63,-1.7138782
67,29,-2.0838337
63,88,-15.562331
130,70,-3.1821868
88,17,-4.519902
84,76,-3.1821868
127,38,-53.410892
159,69,-3.1821868
9,48,-34.59207
40,10,-78.55549
43,42,-4.680983
25,22,-3.1821914
88,50,-0.42816448
116,90,0.058073096
143,78,-2.4012806
47,16,-6.047925
43,75,-3.1821887
5,90,0.05807119
68,4,-3.3118815
152,64,-1.6859714
93,17,-4.5198984
96,77,0.16348062
160,49,-8.561956
48,42,-4.6809793
1,23,-3.9590464
26,2,-124.9734
59,87,-3.1821914
117,70,-3.1821826
76,36,-4.231129
73,4,-3.3118794
139,77,0.16348253
97,24,-3.1821868
136,45,-4.811957
31,61,-11.964682
13,41,-3.2402916
140,19,-2.879471
1,89,-3.086318
126,6,-3.2746506
89,16,-6.047921
92,76,-3.1821887
85,5,-3.9930787
10,47,-3.881468
14,16,-6.047921
44,41,-3.2402952
105,56,-3.1821847
105,84,-3.1821873
40,30,-2.00216
113,69,-3.182185
144,77,0.16347808
148,46,-5.0371103
69,3,-5.595378
64,83,-1.3505526
128,5,-3.9930806
85,43,-3.182185
157,4,-3.3118794
145,52,-29.678368
40,68,-3.3326108
22,48,-34.592068
19,16,-6.047921
114,25,-3.1821873
122,38,-53.41089
69,50,-0.42816448
77,63,-1.7138844
157,70,-3.182185
140,76,-3.1821873
98,23,-3.9590507
32,60,-1.4212608
136,65,-6.9276443
94,12,-3.5667877
53,48,-34.592068
6,29,-2.0838299
115,0,-3.588053
49,37,-6.0924463
2,18,4.6265745
57,22,-3.1821895
153,3,-5.595378
78,10,-78.55549
7,2,-124.97338
33,35,-14.501805
133,71,-7.9478574
18,47,-3.8814697
15,15,-6.457616
110,24,-3.1821887
106,83,-1.3505524
149,45,-4.811957
166,11,-4.4758587
37,9,-56.206448
65,49,-8.561956
28,23,-3.9590526
86,42,-4.680983
86,70,-3.1821887
90,11,-4.475857
149,83,-1.3505526
41,67,-3.1821868
45,36,-4.231129
103,19,-2.8794687
145,72,2.2938058
114,64,-1.6859714
58,44,-3.4851048
66,29,-2.083836
129,70,-3.182185
87,17,-4.5199003
158,69,-3.1821826
162,10,-78.55549
102,82,-3.0124705
95,11,-4.475857
162,43,-3.1821887
27,54,-46.74618
24,22,-3.1821895
119,31,-4.7733016
115,90,0.058073297
53,68,-3.332613
74,56,-3.1821868
82,69,-3.1821892
78,30,-2.0021582
74,89,-3.086322
130,26,-3.1821895
37,66,-2.0752206
138,11,-4.4758587
99,18,4.6265726
95,77,0.16348319
138,39,-3.1821895
33,55,-3.1821868
30,23,-3.9590526
141,71,-7.9478555
54,43,-3.1821868
3,55,-3.1821868
3,83,-1.3505526
58,17,-4.5198984
150,29,-2.0838318
75,36,-4.231129
12,8,-2.873587
150,57,-3.1821847
91,10,-78.55549
138,77,0.16348062
30,61,-11.964684
12,41,-3.2402968
46,35,-14.501805
104,18,4.6265783
107,50,-0.4281664
107,78,-2.4012825
146,71,-7.9478536
62,75,-3.182185
126,25,-3.1821895
151,4,-3.3118794
129,90,0.058075204
0,40,-6.6411676
84,5,-3.9930806
20,68,-3.3326125
46,73,-2.8227277
87,37,-6.092445
108,25,-3.1821854
28,53,-3.1821887
126,58,-1.5599989
42,62,5.022009
39,30,-2.00216
123,90,0.058073297
147,18,4.626572
147,46,-5.0371103
63,50,-0.4281664
79,24,-3.1821887
159,36,-4.231129
156,4,-3.3118794
8,40,-6.64117
100,17,-4.519902
34,54,-46.746185
58,74,-58.243813
21,48,-34.59207
55,42,-4.680983
59,11,-4.4758606
116,57,-3.1821892
116,85,-1.9399154
124,70,-3.1821868
71,82,-3.0124702
135,32,-25.207197
80,4,-3.3118794
8,87,-3.1821895
38,61,-11.964682
35,29,-2.083836
96,44,-3.4851067
93,12,-3.5667837
29,75,-3.1821828
55,80,-2.5611286
112,18,4.626572
135,65,-6.9276447
139,6,-3.2746525
51,69,-3.1821887
1,18,4.626577
67,43,-3.1821847
88,31,-4.773299
152,3,-5.5953755
96,16,-6.047921
9,62,5.0220127
88,36,-4.2311273
17,47,-3.8814697
109,24,-3.1821887
112,84,-3.1821895
47,2,-124.97339
43,61,-11.964684
67,81,-3.1821847
64,49,-8.561956
68,18,4.626568
126,1,-2.338548
60,38,-53.41089
68,23,-3.9590547
152,50,-0.42816225
131,64,-1.6859785
89,11,-4.4758587
160,63,-1.7138822
164,4,-3.3118815
18,3,-5.595378
47,68,-3.3326128
44,36,-4.2311296
144,72,2.2938066
25,79,-3.874304
26,16,-6.047921
121,25,-3.1821914
148,13,-5.241817
76,50,-0.42816448
161,10,-78.55549
39,60,-1.4212627
140,5,-3.9930806
97,43,-3.1821868
97,71,-7.9478555
101,12,-3.5667877
26,54,-46.74618
122,0,-3.588049
56,9,-56.20645
52,68,-3.3326147
56,37,-6.0924463
5,49,-8.561958
114,20,-3.1821847
76,88,-15.562331
69,45,-4.811957
32,22,-3.1821895
77,30,-2.00216
14,2,-124.973366
132,86,-12.006964
140,71,-7.947857
98,18,4.626572
32,55,-3.1821868
113,83,-1.3505526
53,43,-3.1821847
6,24,-3.1821828
69,17,-4.519902
128,19,-2.879473
85,57,-3.182185
93,70,-3.1821845
40,82,-3.0124724
141,27,-4.4711328
48,67,-3.1821845
49,4,-3.3118794
106,50,-0.42816415
106,78,-2.4012785
110,19,-2.8794727
149,12,-3.5667877
149,40,-6.641172
65,44,-3.4851048
128,57,-3.1821892
157,56,-3.182185
165,69,-3.1821847
128,90,0.05807119
86,37,-6.0924463
23,9,-56.206444
157,89,-3.086322
102,11,-4.4758587
149,78,-2.4012806
161,30,-2.00216
41,62,5.0220127
122,90,0.058077313
26,74,-58.243824
23,42,-4.6809793
57,36,-4.231129
81,56,-3.1821892
78,24,-3.1821868
73,76,-3.182185
137,26,-3.1821895
94,64,-1.685974
106,18,4.6265726
102,77,0.16348062
36,86,-12.006962
37,23,-3.9590504
2,70,-3.1821847
57,74,-58.24382
58,11,-4.475857
61,43,-3.1821911
119,26,-3.1821918
53,63,-1.7138782
74,51,-1.8036166
153,88,-15.562331
11,28,-3.827871
7,87,-3.1821895
11,56,-3.1821828
37,61,-11.964685
138,6,-3.2746506
19,41,-3.2402933
114,50,-0.42816415
111,18,4.6265726
69,75,-3.1821868
66,43,-3.1821887
162,24,-3.1821887
82,83,-1.3505546
12,3,-5.59538
146,33,-18.906675
91,5,-3.9930806
27,68,-3.3326108
38,17,-4.5199003
115,25,-3.1821914
46,2,-124.97337
46,30,-2.00216
49,62,5.022011
107,45,-4.811957
146,66,-2.0752187
66,81,-3.1821887
62,70,-3.182185
78,44,-3.4851067
126,20,-3.1821868
7,55,-3.1821868
95,63,-1.7138801
99,32,-25.207205
163,4,-3.311877
20,63,-1.7138824
46,68,-3.3326128
147,13,-5.241819
28,48,-34.59207
62,42,-4.680983
120,25,-3.1821895
123,85,-1.9399134
126,10,-78.55549
78,82,-3.0124686
75,50,-0.4281664
79,19,-2.8794708
150,43,-3.1821847
34,16,-6.047923
30,75,-3.1821868
134,52,-29.678368
15,87,-3.1821895
142,65,-6.927646
4,16,-6.0479174
100,12,-3.5667877
29,4,-3.311877
58,69,-3.182185
150,81,-3.1821847
159,3,-5.595378
87,51,-1.8036143
151,23,-3.9590526
13,2,-124.9734
147,32,-25.207195
108,39,-3.1821854
8,82,-3.0124724
39,16,-6.047927
116,24,-3.1821892
16,67,-3.182185
112,13,-5.241819
71,49,-8.561956
67,10,-78.55548
63,69,-3.1821868
67,38,-53.41089
130,51,-1.8036166
87,89,-3.0863202
127,19,-2.879469
130,79,-3.874304
159,50,-0.4281664
96,11,-4.4758587
43,23,-3.9590526
25,3,-5.595378
51,36,-4.231129
116,71,-7.947855
46,88,-15.562331
43,56,-3.1821887
124,84,-3.1821895
67,76,-3.1821847
38,75,-3.1821866
139,20,-3.1821887
96,58,-1.5599989
160,30,-2.002162
104,43,-3.1821828
125,31,-4.7733016
1,4,-3.3118749
4,64,-1.6859695
25,74,-58.24382
59,68,-3.3326128
117,51,-1.803612
121,20,-3.1821887
155,49,-8.561956
152,17,-4.5198984
76,17,-4.519902
72,76,-3.1821887
139,58,-1.5599989
136,26,-3.1821895
21,2,-124.973366
17,61,-11.964684
31,42,-4.680981
147,71,-7.9478555
39,55,-3.1821887
140,0,-3.5880532
1,70,-3.1821826
113,12,-3.5667858
68,37,-6.0924478
92,57,-3.1821887
13,88,-15.562326
44,22,-3.1821892
47,82,-3.0124686
105,65,-6.9276447
144,58,-1.5600007
148,27,-4.471131
113,50,-0.42816448
117,19,-2.8794668
68,75,-3.1821911
72,44,-3.4851086
161,24,-3.1821868
156,76,-3.1821868
148,65,-6.9276443
164,89,-3.0863242
30,9,-56.206448
26,68,-3.3326092
121,77,0.16348062
22,29,-2.0838318
18,88,-15.562335
48,62,5.022009
5,63,-1.7138844
77,11,-4.4758606
125,51,-1.8036189
122,19,-2.8794687
80,76,-3.1821887
77,44,-3.485109
157,51,-1.8036166
144,26,-3.1821918
101,64,-1.6859759
98,32,-25.207195
140,85,-1.9399154
36,10,-78.55549
56,89,-3.086322
6,10,-78.55549
6,38,-53.41089
49,18,4.626572
57,3,-5.595378
60,63,-1.7138822
152,75,-3.1821828
77,82,-3.0124726
153,12,-3.5667896
33,16,-6.047925
18,28,-3.8278732
14,87,-3.1821854
18,56,-3.1821887
48,81,-3.1821845
106,64,-1.6859733
110,5,-3.9930806
149,26,-3.1821895
36,81,-3.1821873
65,30,-2.0021582
73,43,-3.182185
132,45,-4.811959
86,23,-3.9590526
86,51,-1.8036166
89,83,-1.3505545
129,13,-5.241817
149,64,-1.685974
110,71,-7.9478555
150,1,-2.3385477
161,44,-3.4851067
45,17,-4.519902
26,88,-15.562328
66,10,-78.55549
129,51,-1.8036128
158,50,-0.42815998
10,86,-12.006966
161,82,-3.0124686
102,63,-1.7138822
162,19,-2.8794727
98,52,-29.678364
27,35,-14.501805
24,3,-5.595378
57,88,-15.562331
119,12,-3.566788
74,37,-6.0924463
85,82,-3.0124686
82,50,-0.42816672
37,47,-3.881468
37,75,-3.1821866
41,16,-6.047923
98,90,0.058075204
137,83,-1.3505526
138,20,-3.1821868
141,52,-29.678364
54,24,-3.1821868
3,64,-1.685974
154,49,-8.561958
150,10,-78.5555
150,38,-53.410892
90,82,-3.0124664
20,2,-124.97339
115,11,-4.4758606
111,70,-3.1821866
12,22,-3.1821918
15,82,-3.0124705
46,16,-6.047925
107,59,-1.8580544
70,36,-4.231129
67,4,-3.311877
115,44,-3.4851086
70,69,-3.1821887
150,76,-3.1821847
134,19,-2.8794668
91,57,-3.1821868
166,50,-0.42816448
0,21,-3.1821847
20,49,-8.561958
46,54,-46.746178
46,82,-3.0124686
50,23,-3.9590507
147,27,-4.471127
28,62,5.0220127
42,43,-3.1821826
39,11,-4.4758606
123,71,-7.9478536
79,5,-3.9930806
8,21,-3.1821868
42,15,-6.45761
99,89,-3.086324
142,51,-1.8036166
103,58,-1.559999
58,55,-3.182185
55,23,-3.9590507
58,83,-1.3505526
116,66,-2.0752232
124,51,-1.8036166
154,69,-3.1821868
79,76,-3.1821887
16,48,-34.592068
151,37,-6.0924463
143,26,-3.1821914
100,64,-1.685974
38,42,-4.680981
35,10,-78.55549
116,38,-53.410892
135,46,-5.0371103
16,81,-3.182185
111,90,0.058077313
0,90,0.058077313
67,24,-3.1821847
130,65,-6.9276443
88,12,-3.5667877
151,75,-3.1821887
155,44,-3.4851067
95,88,-15.562328
91,77,0.16348062
17,28,-3.8278732
51,22,-3.1821914
109,5,-3.9930806
112,65,-6.9276423
47,11,-4.4758606
67,62,5.022008
67,90,0.058075406
75,75,-3.1821887
160,11,-4.4758587
31,9,-56.206448
131,45,-4.8119583
88,83,-1.3505545
25,55,-3.1821887
160,44,-3.4851067
104,57,-3.1821828
163,76,-3.1821847
47,49,-8.561958
44,17,-4.5199003
147,85,-1.9399115
25,60,-1.4212627
25,88,-15.562331
121,6,-3.2746525
29,29,-2.0838318
76,31,-4.773299
84,16,-6.047925
139,72,2.2938058
147,57,-3.1821868
105,4,-3.311877
9,16,-6.047923
39,41,-3.240297
39,69,-3.1821887
5,25,-3.1821918
97,52,-29.678368
26,35,-14.501803
60,29,-2.083836
121,72,2.2938097
140,14,-15.187481
100,84,-3.1821876
52,49,-8.56196
56,18,4.626572
5,58,-1.5600007
77,6,-3.2746527
156,43,-3.1821868
32,31,-4.773301
13,74,-58.243824
10,42,-4.680981
40,16,-6.047923
140,52,-29.678366
21,87,-3.1821895
117,5,-3.9930747
32,36,-4.231129
113,64,-1.685974
48,10,-78.55549
6,5,-3.993075
68,89,-3.0863261
72,30,-2.0021582
128,0,-3.5880513
85,38,-53.41089
96,83,-1.3505545
93,51,-1.803612
148,79,-3.8743021
114,11,-4.475857
48,48,-34.592068
48,76,-3.1821845
52,17,-4.519902
106,59,-1.8580538
110,0,-3.588053
149,21,-3.1821868
148,84,-3.1821876
65,25,-3.1821876
128,66,-2.0752232
9,73,-2.8227277
165,50,-0.42816415
109,63,-1.7138803
128,71,-7.947857
105,24,-3.1821847
101,83,-1.3505545
149,59,-1.8580544
122,71,-7.9478536
60,49,-8.561958
57,17,-4.519902
81,37,-6.0924478
78,5,-3.9930787
152,89,-3.0863202
36,62,5.0220113
137,7,-0.7467702
81,70,-3.1821892
18,42,-4.680983
105,90,0.058075406
102,58,-1.5599989
145,20,-3.1821887
40,36,-4.2311273
37,4,-3.311877
2,51,-1.8036143
57,55,-3.1821868
57,83,-1.3505545
61,24,-3.1821911
153,36,-4.231129
153,69,-3.1821868
18,80,-2.5611305
15,48,-34.59207
11,9,-56.206444
11,37,-6.092445
37,42,-4.680981
137,78,-2.4012806
19,22,-3.1821873
114,31,-4.7732973
110,90,0.058073297
114,59,-1.8580519
69,56,-3.1821868
66,24,-3.1821887
69,84,-3.1821895
133,6,-3.2746525
90,44,-3.4851043
129,65,-6.9276443
162,5,-3.9930806
6,61,-11.964678
45,69,-3.1821868
133,39,-3.1821914
90,77,0.1634851
27,49,-8.561956
111,65,-6.9276447
45,74,-58.24382
46,11,-4.4758587
49,43,-3.1821868
27,82,-3.0124686
70,31,-4.773299
7,36,-4.2311273
141,66,-2.0752208
99,13,-5.241817
162,76,-3.1821887
106,89,-3.086322
28,29,-2.083836
62,23,-3.9590507
120,6,-3.2746506
123,66,-2.0752208
78,63,-1.7138803
75,31,-4.773299
79,0,-3.588053
150,24,-3.1821847
142,13,-5.241819
86,76,-3.1821887
138,72,2.2938097
33,88,-15.562331
15,68,-3.3326128
42,10,-78.55549
142,46,-5.0371103
99,84,-3.1821892
4,25,-3.1821835
115,58,-1.5600008
58,50,-0.42816257
55,18,4.626572
150,62,5.02201
150,90,0.058075406
129,85,-1.9399096
87,32,-25.207209
16,43,-3.182185
95,17,-4.5199003
108,20,-3.1821828
116,5,-3.9930806
116,33,-18.906677
119,65,-6.9276476
50,42,-4.680983
71,30,-2.0021582
67,19,-2.8794706
130,32,-25.207203
75,4,-3.3118794
11,67,-3.1821828
8,35,-14.501805
127,0,-3.588051
130,60,-1.4212608
95,83,-1.3505524
159,31,-4.773301
30,29,-2.083836
24,75,-3.1821868
51,17,-4.519902
124,65,-6.9276443
67,57,-3.1821847
83,31,-4.7733016
8,73,-2.8227296
38,56,-3.1821866
139,1,-2.3385499
96,39,-3.1821876
25,50,-0.4281664
104,24,-3.1821828
104,52,-29.678364
146,77,0.16348319
107,84,-3.1821895
125,12,-3.566788
4,45,-4.811953
59,49,-8.561958
59,77,0.16348253
121,1,-2.3385499
63,18,4.626572
155,30,-2.002162
80,37,-6.0924463
151,89,-3.086324
76,26,-3.1821895
39,3,-5.595378
139,39,-3.1821914
155,63,-1.7138822
20,74,-58.24382
17,42,-4.680983
21,11,-4.4758587
147,52,-29.678364
104,90,0.058077313
35,62,5.0220127
39,36,-4.231129
75,89,-3.086324
135,0,-3.588049
92,38,-53.410896
13,69,-3.1821826
47,63,-1.7138803
148,8,-2.8735867
29,43,-3.1821828
117,0,-3.5880468
48,5,-3.9930766
68,56,-3.1821911
72,25,-3.1821914
132,6,-3.2746506
161,5,-3.9930787
164,37,-6.0924478
105,18,4.6265726
127,86,-12.006968
9,2,-124.973366
97,38,-53.410892
164,70,-3.1821892
29,81,-3.1821828
26,49,-8.5619545
121,58,-1.5600008
48,43,-3.1821845
5,44,-3.485109
125,60,-1.4212633
80,57,-3.1821887
77,25,-3.1821918
9,68,-3.3326128
144,7,-0.7467723
101,45,-4.811959
140,66,-2.0752232
35,82,-3.0124705
109,58,-1.5600008
56,70,-3.182183
5,82,-3.0124726
6,19,-2.8794649
126,7,-0.7467683
60,44,-3.4851086
152,56,-3.1821828
152,84,-3.1821854
18,9,-56.206448
14,68,-3.332611
18,37,-6.0924463
149,7,-0.7467683
117,90,0.05807942
65,11,-4.4758587
76,56,-3.1821868
73,24,-3.182185
128,52,-29.67837
153,31,-4.773299
31,81,-3.1821866
132,26,-3.1821895
89,64,-1.685974
86,32,-25.207188
128,85,-1.9399154
18,75,-3.1821887
49,9,-56.206448
97,77,0.16348253
132,54,-46.746174
149,73,-2.8227277
44,89,-3.086324
26,69,-3.1821847
53,11,-4.475857
69,51,-1.8036166
129,32,-25.20718
161,63,-1.7138803
10,67,-3.1821866
11,4,-3.311877
102,44,-3.4851067
106,13,-5.241817
162,0,-3.588051
6,56,-3.1821828
27,16,-6.047923
57,69,-3.1821868
157,24,-3.182185
82,31,-4.7733016
11,23,-3.9590466
40,88,-15.562331
37,56,-3.1821866
138,1,-2.338548
141,33,-18.906681
19,36,-4.231126
41,30,-2.00216
3,45,-4.811957
69,70,-3.1821868
154,30,-2.00216
150,19,-2.8794687
90,63,-1.7138782
94,32,-25.207203
19,74,-58.243824
114,83,-1.3505505
111,51,-1.8036143
115,20,-3.1821887
15,63,-1.7138822
45,88,-15.562331
49,57,-3.1821868
70,17,-4.519902
70,50,-0.4281664
74,19,-2.8794708
134,0,-3.588049
91,38,-53.41089
166,31,-4.773299
107,12,-3.5667896
0,2,-124.97338
50,4,-3.3118794
46,63,-1.7138803
28,43,-3.1821887
123,52,-29.678371
78,77,0.16348253
8,2,-124.97337
11,62,5.022011
99,70,-3.1821866
103,39,-3.1821873
142,32,-25.207188
28,81,-3.1821887
58,36,-4.2311273
55,4,-3.3118794
58,64,-1.685974
66,49,-8.561958
124,32,-25.207203
158,89,-3.086318
79,57,-3.1821887
16,29,-2.0838323
151,18,4.62657
95,31,-4.773299
143,7,-0.7467702
24,42,-4.680983
38,23,-3.9590504
34,82,-3.0124705
119,51,-1.8036189
20,3,-5.59538
16,62,5.0220127
116,19,-2.879471
74,76,-3.1821868
130,46,-5.037112
87,84,-3.1821873
151,56,-3.1821887
155,25,-3.1821895
95,69,-3.1821847
96,6,-3.2746506
99,38,-53.410892
17,9,-56.206448
51,3,-5.595378
54,63,-1.7138822
112,46,-5.0371103
67,71,-7.9478555
130,84,-3.1821895
75,56,-3.1821887
30,81,-3.1821868
131,26,-3.1821918
160,25,-3.1821876
12,61,-11.964685
163,85,-1.9399133
104,38,-53.410885
163,57,-3.1821847
125,26,-3.18219
29,10,-78.55549
25,69,-3.1821887
126,45,-4.811957
76,12,-3.5667896
83,88,-15.562333
84,25,-3.1821895
20,88,-15.562333
139,53,-3.1821887
31,37,-6.092445
104,76,-3.1821828
105,13,-5.241817
108,45,-4.811955
8,88,-15.562331
39,22,-3.1821914
42,82,-3.0124645
5,6,-3.2746527
39,50,-0.4281664
60,10,-78.55549
97,33,-18.90668
55,90,0.058073297
156,24,-3.1821868
13,55,-3.1821826
39,88,-15.562335
140,33,-18.906681
21,68,-3.3326128
55,62,5.0220127
113,45,-4.811957
116,77,0.16347998
117,14,-15.187473
5,77,0.16347808
68,70,-3.1821911
72,11,-4.4758625
127,72,2.2938097
152,51,-1.8036143
96,64,-1.685974
93,32,-25.207201
30,4,-3.3118794
135,85,-1.9399114
48,29,-2.0838313
48,57,-3.1821845
51,89,-3.086324
109,72,2.2938097
149,2,-124.97339
125,46,-5.037112
128,47,-3.8814714
9,54,-46.746174
9,82,-3.0124686
165,31,-4.7732973
109,44,-3.4851086
9,87,-3.1821895
105,33,-18.906681
68,10,-78.55549
64,69,-3.182185
125,84,-3.18219
122,52,-29.678368
60,58,-1.5599989
81,18,4.6265697
152,70,-3.1821828
89,31,-4.773299
36,43,-3.1821873
18,23,-3.9590526
44,56,-3.1821866
148,33,-18.906675
102,39,-3.1821895
145,1,-2.3385499
105,71,-7.9478555
36,76,-3.1821873
2,32,-25.207209
61,5,-3.9930825
57,64,-1.6859759
153,17,-4.519902
153,50,-0.42816448
18,61,-11.964684
157,19,-2.879469
97,63,-1.7138803
11,18,4.6265745
118,51,-1.8036166
19,3,-5.5953755
52,88,-15.562331
114,40,-6.6411695
69,37,-6.0924463
66,5,-3.9930806
69,65,-6.9276443
132,78,-2.4012806
77,50,-0.42816672
14,22,-3.1821854
90,53,-3.1821847
129,46,-5.0371084
133,15,-6.457616
98,38,-53.41089
161,77,0.16348253
32,75,-3.1821868
90,58,-1.5599971
27,30,-2.00216
49,24,-3.1821868
45,83,-1.3505526
70,12,-3.5667877
85,77,0.16348253
7,17,-4.519902
41,11,-4.4758587
98,85,-1.9399115
141,47,-3.8814697
162,57,-3.1821887
149,32,-25.207203
106,70,-3.1821866
107,7,-0.7467702
110,39,-3.1821914
28,10,-78.55549
62,4,-3.3118794
65,64,-1.6859721
123,47,-3.8814697
157,76,-3.182185
78,72,2.2938097
141,85,-1.9399134
86,57,-3.1821887
23,29,-2.0838318
19,88,-15.562328
158,18,4.626577
150,7,-0.7467681
41,82,-3.0124686
142,27,-4.471131
118,71,-7.9478574
115,39,-3.1821914
58,31,-4.773299
74,5,-3.9930787
150,71,-7.9478555
137,46,-5.037112
94,84,-3.1821895
16,24,-3.182185
50,18,4.626572
95,26,-3.1821873
58,3,-5.595374
115,77,0.16347872
116,14,-15.187471
119,46,-5.037112
53,83,-1.3505505
71,11,-4.4758587
74,71,-7.9478555
130,13,-5.241819
130,41,-3.2402952
11,48,-34.592068
8,16,-6.047925
37,81,-3.1821866
138,26,-3.1821895
95,64,-1.6859733
30,10,-78.55549
24,56,-3.1821868
50,89,-3.086322
124,46,-5.0371103
83,12,-3.5667899
8,54,-46.74617
146,53,-3.1821847
104,0,-3.588049
38,37,-6.092445
20,17,-4.519904
46,22,-3.1821895
107,65,-6.9276443
104,33,-18.906673
146,86,-12.006962
59,30,-2.00216
59,58,-1.5600008
62,90,0.058073297
126,40,-6.641172
83,78,-2.4012828
151,70,-3.1821887
155,11,-4.4758587
20,55,-3.1821892
17,23,-3.9590526
20,83,-1.3505546
147,33,-18.906677
39,17,-4.519902
120,45,-4.811957
79,11,-4.4758606
75,70,-3.1821887
34,36,-4.2311273
31,4,-3.311877
92,19,-2.8794727
88,78,-2.4012787
131,40,-6.6411743
134,72,2.2938128
100,32,-25.207188
47,44,-3.4851086
147,80,-2.5611267
29,24,-3.1821828
55,57,-3.1821868
116,72,2.2938066
151,10,-78.55549
72,6,-3.2746525
164,18,4.6265697
164,46,-5.037114
13,22,-3.1821852
127,67,-3.1821868
9,11,-4.4758587
29,62,5.022008
29,90,0.058075406
108,64,-1.6859695
48,24,-3.1821845
63,89,-3.086322
125,41,-3.2402968
88,18,4.626572
84,77,0.16348062
127,39,-3.1821895
159,70,-3.1821868
9,49,-8.561958
40,11,-4.4758587
43,43,-3.1821887
88,51,-1.8036166
140,47,-3.8814714
143,79,-3.874304
109,39,-3.1821914
43,76,-3.1821887
6,0,-3.5880451
68,5,-3.9930825
64,64,-1.6859759
125,79,-3.874306
152,37,-6.092445
152,65,-6.927643
96,78,-2.4012787
160,50,-0.4281664
17,81,-3.1821887
18,18,4.62657
117,71,-7.9478517
76,37,-6.0924463
73,5,-3.9930787
76,65,-6.9276443
139,78,-2.4012806
97,25,-3.1821895
93,84,-3.182187
136,46,-5.0371103
31,62,5.02201
31,90,0.058075406
132,35,-14.501805
10,10,-78.5555
97,58,-1.5599989
1,90,0.058077514
52,83,-1.3505545
69,32,-25.207188
85,6,-3.2746506
161,72,2.2938097
10,48,-34.592068
10,76,-3.1821866
14,17,-4.5198965
102,25,-3.1821895
105,85,-1.9399114
40,31,-4.773299
113,70,-3.182185
148,47,-3.8814697
27,25,-3.1821895
61,19,-2.879473
69,4,-3.3118794
157,5,-3.9930787
82,12,-3.5667899
85,72,2.2938097
145,53,-3.1821887
40,69,-3.1821868
37,37,-6.092445
141,14,-15.187478
22,49,-8.5619545
19,17,-4.5199003
149,27,-4.471129
3,26,-3.1821895
154,11,-4.4758587
157,71,-7.9478555
94,13,-5.241819
19,55,-3.1821847
23,24,-3.1821828
115,1,-2.3385499
49,38,-53.41089
57,23,-3.9590507
70,26,-3.1821914
118,66,-2.0752227
78,11,-4.4758587
74,0,-3.588051
33,36,-4.231129
133,72,2.2938058
162,71,-7.9478574
15,16,-6.047925
166,12,-3.5667877
106,84,-3.1821892
137,41,-3.2402952
49,76,-3.1821868
28,24,-3.1821887
57,89,-3.086322
123,33,-18.906675
78,58,-1.5599989
90,12,-3.5667858
86,71,-7.9478555
142,8,-2.8735867
107,31,-4.773299
7,74,-58.243824
11,43,-3.1821828
45,37,-6.0924463
103,20,-3.1821847
145,73,-2.8227296
62,56,-3.182185
58,45,-4.811957
66,30,-2.00216
129,71,-7.9478517
87,18,4.6265745
158,70,-3.1821826
162,11,-4.4758606
95,12,-3.5667858
142,79,-3.874304
27,55,-3.1821868
24,23,-3.9590507
38,4,-3.311877
116,0,-3.5880532
20,12,-3.5667899
74,57,-3.1821868
130,27,-4.471131
74,90,0.058075204
155,6,-3.2746506
95,50,-0.42816225
95,78,-2.4012766
99,19,-2.8794725
33,56,-3.1821868
30,24,-3.1821868
138,40,-6.641172
20,50,-0.42816672
50,75,-3.1821868
54,44,-3.4851067
150,30,-2.00216
75,37,-6.0924463
79,6,-3.2746525
8,68,-3.3326128
138,78,-2.4012806
30,62,5.022009
131,7,-0.7467723
163,66,-2.0752206
12,42,-4.680985
146,72,2.2938128
104,19,-2.8794668
107,79,-3.874304
125,7,-0.7467723
59,44,-3.4851086
126,26,-3.1821895
83,64,-1.6859785
38,89,-3.086322
0,41,-3.2402952
84,6,-3.2746525
20,69,-3.1821892
87,38,-53.41089
147,19,-2.879469
108,26,-3.1821854
147,47,-3.8814697
104,85,-1.9399095
42,63,-1.7138759
39,31,-4.773301
4,78,-2.4012766
63,51,-1.8036166
60,19,-2.8794727
67,25,-3.1821873
130,66,-2.0752208
156,5,-3.9930787
159,65,-6.9276443
100,18,4.626572
21,49,-8.561958
25,18,4.62657
55,43,-3.1821868
113,26,-3.1821876
116,58,-1.5600007
116,86,-12.006966
124,71,-7.9478555
71,83,-1.3505524
68,51,-1.8036189
135,33,-18.906677
80,5,-3.9930806
132,1,-2.3385518
152,32,-25.207201
35,30,-2.00216
96,45,-4.811957
93,13,-5.241815
29,76,-3.1821828
139,7,-0.7467702
135,66,-2.0752225
117,33,-18.906677
51,70,-3.1821887
48,38,-53.41089
1,19,-2.8794649
72,58,-1.5600027
88,32,-25.207203
152,4,-3.311877
9,35,-14.5018015
9,63,-1.7138803
165,12,-3.5667858
17,48,-34.59207
109,25,-3.1821914
112,85,-1.9399134
43,62,5.0220127
13,37,-6.0924435
64,50,-0.42816448
68,19,-2.879473
125,65,-6.9276457
126,2,-124.97339
60,39,-3.1821895
89,12,-3.5667877
160,64,-1.6859759
18,4,-3.3118794
44,37,-6.092445
144,73,-2.8227317
105,52,-29.678364
148,14,-15.18747
121,26,-3.1821914
60,77,0.16347872
76,51,-1.8036166
153,26,-3.1821895
161,11,-4.4758587
31,76,-3.1821866
89,59,-1.8580544
157,0,-3.5880492
18,70,-3.1821887
97,44,-3.4851067
97,72,2.2938097
118,32,-25.207195
118,60,-1.4212627
122,1,-2.3385458
52,69,-3.1821887
56,38,-53.41089
114,21,-3.1821847
76,89,-3.086324
73,57,-3.182185
69,46,-5.037112
32,23,-3.9590507
132,59,-1.8580544
77,31,-4.7733016
132,87,-3.1821895
10,62,5.0220137
140,72,2.2938027
98,19,-2.879469
32,56,-3.1821868
27,11,-4.4758587
53,44,-3.4851043
6,25,-3.1821854
128,20,-3.1821892
85,58,-1.5599989
152,90,0.058077313
6,89,-3.0863163
40,83,-1.3505545
141,28,-3.8278732
48,68,-3.3326094
149,13,-5.241819
106,51,-1.8036143
106,79,-3.874304
110,20,-3.1821887
149,41,-3.2402952
61,76,-3.1821911
65,45,-4.811955
123,28,-3.8278751
157,57,-3.182185
129,0,-3.5880492
86,38,-53.410892
23,10,-78.55548
161,31,-4.773301
19,69,-3.1821847
142,3,-5.595378
107,26,-3.1821895
157,90,0.058073297
149,79,-3.874304
41,63,-1.7138803
123,0,-3.588051
26,75,-3.1821847
23,43,-3.1821828
81,57,-3.1821892
78,25,-3.1821895
73,77,0.16347872
137,27,-4.471129
94,65,-6.9276443
162,6,-3.2746525
102,78,-2.4012787
36,87,-3.18219
49,90,0.058073297
2,71,-7.9478536
57,75,-3.1821868
58,12,-3.5667858
119,27,-4.471137
115,86,-12.006968
53,64,-1.6859714
50,32,-25.20718
74,52,-29.678368
166,64,-1.6859759
130,22,-3.1821895
11,29,-2.0838318
7,88,-15.562331
37,62,5.0220137
11,57,-3.1821828
95,45,-4.811957
138,7,-0.7467702
111,19,-2.8794687
50,70,-3.1821868
69,76,-3.1821868
66,44,-3.4851086
124,27,-4.471129
162,25,-3.1821914
82,84,-3.1821918
12,4,-3.3118815
8,63,-1.7138822
91,6,-3.2746525
146,34,-42.035458
38,18,4.6265726
111,85,-1.9399114
46,3,-5.595378
46,31,-4.773301
107,46,-5.037112
104,14,-15.187473
146,67,-3.1821847
66,82,-3.0124724
62,71,-7.9478555
59,39,-3.1821914
126,21,-3.1821868
83,59,-1.8580588
154,83,-1.3505545
99,33,-18.90668
163,5,-3.9930787
38,84,-3.1821892
20,36,-4.231129
20,64,-1.6859766
28,49,-8.56196
120,26,-3.1821895
78,83,-1.3505526
75,51,-1.8036166
79,20,-3.1821887
34,17,-4.519902
30,76,-3.1821868
131,21,-3.1821892
134,53,-3.1821847
163,52,-29.678368
100,13,-5.241817
29,5,-3.9930768
58,70,-3.182185
55,38,-53.410892
116,53,-3.1821892
150,82,-3.0124702
71,78,-2.4012785
87,52,-29.678368
135,28,-3.827873
151,24,-3.1821887
13,3,-5.5953736
164,27,-4.4711313
108,40,-6.6411676
8,83,-1.3505545
116,25,-3.1821918
16,68,-3.3326108
29,71,-7.9478536
71,50,-0.42816415
67,11,-4.4758587
63,70,-3.1821868
130,52,-29.678368
87,90,0.058075406
84,58,-1.5599989
88,27,-4.471131
127,20,-3.1821868
159,51,-1.8036166
9,30,-2.0021582
39,83,-1.3505545
43,24,-3.1821887
25,4,-3.3118794
143,60,-1.4212627
109,20,-3.1821887
43,57,-3.1821887
5,72,2.2938066
67,77,0.16348128
64,45,-4.811957
152,46,-5.0371084
96,59,-1.8580563
160,31,-4.773299
22,10,-78.55549
104,44,-3.4851024
117,47,-3.8814662
17,90,0.058073297
125,32,-25.207195
59,69,-3.1821887
117,52,-29.678368
121,21,-3.1821887
152,18,4.6265745
76,18,4.626572
72,77,0.16348062
76,46,-5.037112
139,59,-1.8580563
97,6,-3.2746506
136,27,-4.471131
17,62,5.0220127
31,43,-3.1821866
31,71,-7.9478555
105,19,-2.8794687
132,16,-6.047925
52,31,-4.773301
140,1,-2.3385503
97,39,-3.1821895
1,71,-7.9478498
5,40,-6.6411743
52,64,-1.6859759
5,45,-4.8119583
92,58,-1.5600046
89,26,-3.1821895
32,18,4.626572
10,29,-2.0838337
10,57,-3.1821866
13,89,-3.086318
47,83,-1.3505526
105,66,-2.0752206
148,28,-3.8278751
113,79,-3.874304
61,0,-3.5880551
68,76,-3.1821911
69,13,-5.241819
161,25,-3.1821895
128,15,-6.457616
85,53,-3.182185
156,77,0.16348253
148,66,-2.0752208
145,34,-42.035454
40,50,-0.42816448
40,78,-2.4012787
22,30,-2.00216
18,89,-3.086324
48,63,-1.7138759
149,8,-2.8735847
122,20,-3.1821847
132,73,-2.8227296
77,45,-4.8119583
157,52,-29.678368
154,20,-3.1821868
101,65,-6.927646
98,33,-18.906677
140,86,-12.006969
36,11,-4.4758587
23,5,-3.9930768
56,90,0.058073297
6,39,-3.1821854
49,19,-2.879469
57,4,-3.3118794
57,32,-25.207188
152,76,-3.1821828
77,83,-1.3505565
81,52,-29.67837
33,17,-4.519902
133,53,-3.1821887
18,29,-2.083836
14,88,-15.562325
165,84,-3.1821873
137,22,-3.1821895
106,65,-6.9276447
36,82,-3.0124707
28,5,-3.9930806
57,70,-3.1821868
89,84,-3.1821895
86,52,-29.678368
90,21,-3.1821847
129,14,-15.187463
110,72,2.2938058
107,40,-6.641174
150,2,-124.97339
11,24,-3.1821828
45,18,4.626572
103,1,-2.3385477
111,14,-15.187475
66,11,-4.4758606
69,71,-7.9478536
129,52,-29.678368
86,90,0.058075204
158,51,-1.803612
161,83,-1.3505526
162,20,-3.1821887
98,53,-3.1821868
24,4,-3.3118794
27,64,-1.685974
115,72,2.2938058
119,41,-3.2402987
82,51,-1.8036189
130,8,-2.8735867
154,78,-2.4012787
37,76,-3.1821866
99,0,-3.588049
95,59,-1.8580519
138,21,-3.1821868
141,53,-3.182185
20,31,-4.7733016
50,84,-3.1821895
54,25,-3.1821895
3,65,-6.9276443
154,50,-0.42816448
150,11,-4.475857
78,78,-2.4012806
150,39,-3.1821873
138,59,-1.8580544
30,43,-3.1821868
34,12,-3.5667858
111,71,-7.9478536
12,23,-3.9590528
15,83,-1.3505545
107,60,-1.4212608
67,5,-3.9930787
59,25,-3.1821914
70,70,-3.1821887
91,58,-1.5600008
163,19,-2.8794687
0,22,-3.1821873
50,24,-3.1821868
46,83,-1.3505526
108,7,-0.7467681
147,0,-3.588051
147,28,-3.8278713
42,44,-3.485102
39,12,-3.5667877
63,32,-25.207203
130,47,-3.8814697
155,77,0.16348062
8,22,-3.1821895
159,46,-5.0371103
99,90,0.0580735
120,78,-2.4012806
21,30,-2.002162
24,90,0.058075204
55,24,-3.1821868
58,84,-3.1821876
116,39,-3.1821918
116,67,-3.1821892
124,52,-29.678368
71,64,-1.6859733
135,14,-15.187473
79,77,0.16348253
143,27,-4.471131
100,65,-6.9276443
38,43,-3.1821866
35,11,-4.4758606
96,26,-3.1821876
135,47,-3.881468
29,57,-3.1821828
51,51,-1.8036166
1,0,-3.5880468
88,13,-5.241819
151,76,-3.1821887
152,13,-5.241813
155,45,-4.811957
9,44,-3.4851067
88,46,-5.037112
17,29,-2.083836
109,6,-3.2746525
112,66,-2.0752208
64,31,-4.773299
68,0,-3.5880532
125,74,-58.243816
131,46,-5.037112
88,84,-3.1821895
25,56,-3.1821887
160,45,-4.811957
163,77,0.16348128
17,76,-3.1821887
44,18,4.6265726
144,54,-46.74617
29,30,-2.0021582
25,89,-3.086324
121,7,-0.7467702
76,32,-25.207207
139,73,-2.8227296
97,20,-3.1821868
160,83,-1.3505526
164,52,-29.67837
31,57,-3.1821866
105,5,-3.9930787
100,85,-1.9399134
5,26,-3.1821918
97,53,-3.1821868
30,5,-3.9930806
60,30,-2.00216
121,73,-2.8227296
118,41,-3.240297
52,50,-0.4281664
56,19,-2.879469
76,70,-3.1821868
77,7,-0.7467723
125,47,-3.8814714
32,4,-3.3118794
132,68,-3.3326128
10,43,-3.1821866
40,17,-4.519902
140,53,-3.1821873
98,0,-3.5880492
32,37,-6.092448
113,65,-6.9276443
53,25,-3.1821873
6,6,-3.2746468
68,90,0.05807119
128,1,-2.3385503
85,39,-3.1821876
152,71,-7.9478517
148,80,-2.5611286
93,52,-29.678371
40,64,-1.6859759
18,24,-3.1821887
48,49,-8.5619545
48,77,0.16348764
106,32,-25.207201
106,60,-1.4212602
110,1,-2.3385499
148,85,-1.9399134
149,22,-3.1821895
65,26,-3.1821876
128,67,-3.1821892
157,38,-53.410892
165,51,-1.8036143
128,72,2.2938066
86,19,-2.8794708
22,82,-3.0124683
161,40,-6.641172
101,84,-3.1821914
149,60,-1.4212608
41,44,-3.4851067
122,72,2.2938128
57,18,4.626572
118,61,-11.964684
81,38,-53.41089
78,6,-3.2746506
36,63,-1.7138805
137,8,-2.8735867
161,78,-2.4012806
106,0,-3.5880508
102,59,-1.8580544
37,5,-3.9930787
2,52,-29.678368
57,56,-3.1821868
57,84,-3.1821895
61,25,-3.1821938
119,8,-2.8735907
74,33,-18.90668
153,70,-3.1821868
18,81,-3.1821887
15,49,-8.561958
11,10,-78.55548
7,69,-3.1821868
11,38,-53.410885
37,43,-3.1821866
137,79,-3.874304
19,23,-3.9590485
166,78,-2.4012787
111,0,-3.5880508
69,57,-3.1821868
66,25,-3.1821914
133,7,-0.7467721
90,45,-4.811955
87,13,-5.241817
129,66,-2.075219
11,76,-3.1821828
45,70,-3.1821868
90,78,-2.4012785
27,50,-0.42816448
146,15,-6.457612
111,66,-2.0752206
49,44,-3.4851067
46,12,-3.5667877
66,63,-1.7138822
67,0,-3.588049
70,32,-25.207203
155,1,-2.338548
7,37,-6.0924463
99,14,-15.187477
162,77,0.16347872
106,90,0.058075406
20,45,-4.8119583
28,30,-2.002162
62,24,-3.182185
120,7,-0.7467702
123,67,-3.1821868
78,64,-1.6859721
75,32,-25.207203
79,1,-2.3385499
142,14,-15.187476
99,52,-29.678368
138,73,-2.8227296
33,89,-3.086322
30,57,-3.1821868
15,69,-3.1821868
142,47,-3.8814697
99,85,-1.9399114
4,26,-3.1821835
120,73,-2.8227296
58,51,-1.8036128
55,19,-2.879469
151,0,-3.588053
87,33,-18.906675
12,75,-3.1821892
16,44,-3.4851048
108,21,-3.1821828
116,6,-3.2746527
116,34,-42.035454
50,43,-3.1821868
111,86,-12.006966
71,31,-4.7732973
67,20,-3.1821847
130,33,-18.906677
0,74,-58.24382
87,71,-7.9478536
88,8,-2.8735867
127,1,-2.338548
130,61,-11.964684
95,84,-3.1821873
159,32,-25.207188
43,5,-3.9930806
24,76,-3.1821868
51,18,4.62657
109,1,-2.3385499
124,66,-2.075219
67,58,-1.5599971
64,26,-3.1821876
160,7,-0.7467702
8,74,-58.243824
38,57,-3.1821866
139,2,-124.97339
96,40,-6.641172
160,12,-3.5667877
25,51,-1.8036166
104,25,-3.1821854
51,65,-6.927646
125,13,-5.241821
4,46,-5.0371046
59,50,-0.4281664
59,78,-2.4012806
121,2,-124.9734
117,61,-11.96468
80,38,-53.410892
151,90,0.058073297
76,27,-4.471131
39,4,-3.3118794
35,63,-1.7138822
136,8,-2.8735867
20,75,-3.1821892
17,43,-3.1821887
31,24,-3.1821866
31,52,-29.678368
97,15,-6.457614
139,40,-6.641172
139,68,-3.3326147
39,37,-6.0924463
1,52,-29.678368
5,21,-3.1821892
60,25,-3.1821895
92,39,-3.1821914
89,7,-0.7467702
131,60,-1.4212652
13,70,-3.1821826
10,38,-53.410892
47,64,-1.6859759
105,47,-3.881468
148,9,-56.20645
117,1,-2.3385437
113,60,-1.4212608
68,57,-3.1821911
68,85,-1.9399154
72,26,-3.1821914
132,7,-0.7467721
89,45,-4.811957
161,6,-3.2746506
164,38,-53.410892
127,87,-3.1821895
9,3,-5.595378
85,34,-42.03546
148,75,-3.182185
29,82,-3.0124683
26,50,-0.42816225
164,71,-7.947857
40,59,-1.8580544
48,44,-3.4851038
80,58,-1.5600027
77,26,-3.1821918
9,69,-3.1821868
144,8,-2.8735888
101,46,-5.0371103
98,14,-15.187474
140,67,-3.1821873
35,83,-1.3505545
22,77,0.16348319
56,71,-7.9478536
101,79,-3.874304
6,20,-3.1821828
126,8,-2.8735847
60,45,-4.811959
57,13,-5.241819
152,57,-3.1821828
77,64,-1.6859766
81,33,-18.90668
152,85,-1.9399095
32,89,-3.086322
36,58,-1.5599988
18,10,-78.55549
14,69,-3.1821828
18,38,-53.41089
106,46,-5.0371084
137,3,-5.595378
57,51,-1.8036166
73,25,-3.1821876
153,32,-25.207207
132,27,-4.471131
89,65,-6.9276443
86,33,-18.90668
90,2,-124.97338
128,86,-12.006969
15,44,-3.4851067
110,53,-3.1821887
149,74,-58.243824
44,90,0.0580735
26,70,-3.1821847
65,78,-2.4012806
110,86,-12.006968
69,52,-29.678368
129,33,-18.90667
90,40,-6.6411695
10,68,-3.332611
133,2,-124.973404
158,32,-25.207201
161,64,-1.685974
162,1,-2.3385499
23,76,-3.1821828
27,45,-4.811957
61,39,-3.1821938
119,22,-3.1821918
137,60,-1.4212608
82,32,-25.207172
40,89,-3.086322
37,57,-3.1821866
98,72,2.2938097
3,13,-5.241819
138,2,-124.97337
141,34,-42.035454
141,62,5.022009
106,85,-1.9399114
54,6,-3.2746506
3,46,-5.0371103
62,19,-2.8794708
154,31,-4.773301
78,59,-1.8580525
150,20,-3.1821847
11,90,0.058077313
142,9,-56.206448
19,75,-3.1821847
33,84,-3.1821895
111,52,-29.678368
115,21,-3.1821887
15,64,-1.6859759
66,77,0.16348062
70,51,-1.8036166
134,1,-2.3385458
91,39,-3.1821895
95,8,-2.8735843
163,0,-3.5880508
166,32,-25.207203
0,3,-5.5953755
50,5,-3.9930787
46,64,-1.685974
95,13,-5.241817
147,9,-56.20644
28,44,-3.4851086
116,1,-2.3385503
50,38,-53.410892
163,38,-53.410892
130,28,-3.8278732
0,69,-3.1821847
8,3,-5.595378
8,31,-4.773301
103,40,-6.6411695
159,27,-4.471127
28,82,-3.0124724
24,71,-7.9478555
55,5,-3.9930787
58,65,-6.9276423
116,48,-34.59207
124,33,-18.906677
34,50,-0.42816448
79,58,-1.5599989
83,27,-4.471133
151,19,-2.8794727
8,69,-3.1821868
143,8,-2.8735886
100,46,-5.0371103
38,24,-3.1821866
34,83,-1.3505526
38,52,-29.678368
116,20,-3.1821892
16,63,-1.7138784
59,12,-3.5667877
59,45,-4.811957
87,85,-1.9399114
151,57,-3.1821887
151,85,-1.9399134
155,26,-3.1821895
96,7,-0.7467702
17,10,-78.55549
20,70,-3.1821892
112,47,-3.8814716
67,72,2.293809
127,53,-3.1821868
30,82,-3.0124705
131,27,-4.471133
88,65,-6.9276443
160,26,-3.1821876
163,58,-1.559999
163,86,-12.006966
43,90,0.058073297
125,27,-4.4711313
29,11,-4.475857
25,70,-3.1821887
29,39,-3.1821854
59,64,-1.6859759
76,13,-5.241819
139,54,-46.746185
164,33,-18.90668
31,38,-53.41089
104,77,0.163487
105,14,-15.187479
108,46,-5.0371084
8,89,-3.086322
39,51,-1.8036166
139,87,-3.1821914
5,7,-0.7467723
97,34,-42.035458
29,77,0.16348128
60,11,-4.4758606
121,54,-46.746185
56,0,-3.5880492
76,79,-3.874304
88,33,-18.90668
156,25,-3.1821895
32,13,-5.241819
10,24,-3.1821866
39,89,-3.086324
140,34,-42.035458
21,69,-3.1821868
113,46,-5.0371103
5,78,-2.4012828
68,71,-7.947857
127,73,-2.8227277
85,20,-3.182185
152,52,-29.678364
96,65,-6.927646
93,33,-18.906677
148,61,-11.964684
48,30,-2.0021544
48,58,-1.5599971
51,90,0.058073297
106,41,-3.2402952
109,73,-2.8227296
69,18,4.626572
149,3,-5.595378
65,7,-0.7467664
128,48,-34.59207
9,83,-1.3505545
165,32,-25.207209
31,77,0.16348319
109,45,-4.811957
9,88,-15.562331
49,5,-3.9930787
64,70,-3.182185
125,85,-1.9399135
122,53,-3.1821847
81,19,-2.879473
77,78,-2.4012809
36,44,-3.4851072
136,80,-2.5611305
161,59,-1.8580544
145,2,-124.973404
102,40,-6.64117
36,77,0.16347998
2,33,-18.906675
57,37,-6.0924463
57,65,-6.9276443
61,6,-3.2746546
89,79,-3.874304
153,51,-1.8036166
15,30,-2.00216
11,19,-2.8794687
118,52,-29.678368
3,8,-2.8735847
19,4,-3.311877
52,89,-3.086324
114,41,-3.2402933
69,38,-53.410892
66,6,-3.2746525
69,66,-2.0752208
132,79,-3.8743021
90,26,-3.1821873
90,54,-46.746178
10,82,-3.0124683
129,47,-3.8814678
133,16,-6.047925
98,39,-3.1821895
45,51,-1.8036166
133,21,-3.1821887
90,59,-1.8580519
27,31,-4.773299
111,47,-3.881468
49,25,-3.1821895
45,84,-3.1821895
70,13,-5.241819
66,72,2.2938097
7,18,4.626572
41,12,-3.5667877
98,86,-12.006964
141,48,-34.59207
162,58,-1.5600008
166,27,-4.471131
106,71,-7.9478555
107,8,-2.8735867
28,11,-4.4758606
62,5,-3.9930787
119,79,-3.8743079
123,48,-34.59207
78,45,-4.811957
78,73,-2.8227277
141,86,-12.006964
86,58,-1.5599989
138,54,-46.746174
19,89,-3.0863202
33,70,-3.1821868
15,50,-0.42816448
41,83,-1.3505526
142,28,-3.8278751
99,66,-2.0752225
4,7,-0.7467643
115,40,-6.641172
58,32,-25.207188
55,0,-3.588051
150,72,2.2938128
94,85,-1.9399115
16,25,-3.1821876
50,19,-2.8794708
108,2,-124.973366
115,78,-2.4012806
116,15,-6.4576178
119,47,-3.8814714
71,12,-3.5667858
74,72,2.2938097
130,14,-15.187478
126,73,-2.8227277
87,80,-2.5611265
8,17,-4.519902
130,42,-4.680983
159,13,-5.241819
95,65,-6.927643
30,11,-4.4758606
24,57,-3.1821868
50,90,0.058075204
124,47,-3.8814697
83,13,-5.241821
130,80,-2.5611305
8,55,-3.1821868
146,54,-46.74618
104,1,-2.3385458
38,38,-53.41089
25,32,-25.207188
107,66,-2.0752208
104,34,-42.03546
51,46,-5.0371103
124,85,-1.9399115
125,22,-3.18219
59,31,-4.773299
59,59,-1.8580563
63,0,-3.588051
126,41,-3.2402952
80,19,-2.8794708
80,47,-3.8814697
83,79,-3.8743079
151,71,-7.9478555
76,8,-2.8735886
38,76,-3.1821866
35,44,-3.4851067
139,21,-3.1821887
20,56,-3.1821892
17,24,-3.1821887
20,84,-3.1821918
31,33,-18.90668
139,49,-8.56196
39,18,4.62657
5,2,-124.97339
60,6,-3.2746525
75,71,-7.9478574
31,5,-3.9930787
92,20,-3.1821887
88,79,-3.874304
131,41,-3.2402987
134,73,-2.8227253
163,72,2.293809
13,51,-1.803612
47,45,-4.811957
147,81,-3.1821868
29,25,-3.1821854
116,73,-2.8227298
113,41,-3.2402952
68,38,-53.410892
68,66,-2.075225
72,7,-0.7467702
131,79,-3.8743079
160,78,-2.4012806
13,23,-3.9590464
164,19,-2.879471
164,47,-3.8814714
127,68,-3.3326128
8,75,-3.1821868
9,12,-3.5667877
148,56,-3.182185
29,63,-1.7138801
26,31,-4.7732973
30,0,-3.588053
48,25,-3.182187
125,42,-4.680985
88,19,-2.8794708
84,78,-2.4012787
80,67,-3.1821887
9,50,-0.4281664
40,12,-3.5667877
43,44,-3.4851086
101,27,-4.471131
140,48,-34.592068
143,80,-2.5611305
109,40,-6.641172
56,52,-29.678364
6,1,-2.338544
68,6,-3.2746546
64,65,-6.9276443
125,80,-2.561129
122,48,-34.592068
152,38,-53.410885
81,14,-15.187477
152,66,-2.0752168
36,39,-3.18219
136,75,-3.1821868
17,82,-3.0124705
14,50,-0.42816034
18,19,-2.8794708
117,72,2.2938159
73,6,-3.2746506
153,13,-5.241819
97,26,-3.1821895
93,85,-1.9399095
136,47,-3.8814697
31,63,-1.7138801
132,36,-4.231129
86,14,-15.187478
89,74,-58.243813
97,59,-1.8580544
2,0,-3.588049
149,55,-3.1821868
44,71,-7.9478555
118,47,-3.8814697
52,84,-3.1821914
73,72,2.2938058
69,33,-18.906677
66,1,-2.3385499
132,74,-58.24382
161,45,-4.811957
10,49,-8.561958
10,77,0.16348319
105,86,-12.006966
161,73,-2.8227277
27,26,-3.1821895
61,20,-3.1821911
119,3,-5.59538
157,6,-3.2746506
82,13,-5.241819
85,73,-2.8227296
145,54,-46.746193
40,70,-3.1821868
37,38,-53.410896
41,7,-0.7467702
137,74,-58.243813
19,18,4.6265745
141,15,-6.457614
141,43,-3.182185
106,66,-2.0752206
3,27,-4.471129
62,0,-3.588051
154,12,-3.5667877
154,40,-6.64117
157,72,2.2938058
78,40,-6.641172
94,14,-15.187476
141,81,-3.182185
19,56,-3.1821847
19,84,-3.1821873
23,25,-3.1821854
33,65,-6.9276443
115,2,-124.973404
49,39,-3.1821895
70,27,-4.4711328
115,35,-14.501809
78,12,-3.5667877
74,1,-2.338548
33,37,-6.0924463
133,73,-2.8227315
91,20,-3.1821868
94,80,-2.5611305
162,72,2.2938097
166,13,-5.241819
49,77,0.16348253
46,45,-4.811957
50,14,-15.187469
28,25,-3.1821914
57,90,0.058073297
115,73,-2.8227315
163,47,-3.881468
130,9,-56.206448
159,8,-2.8735847
7,75,-3.1821868
8,12,-3.5667877
11,44,-3.4851043
103,21,-3.1821847
145,74,-58.243816
28,63,-1.7138822
124,9,-56.20644
24,52,-29.678364
58,46,-5.0371065
66,31,-4.773299
79,34,-42.035458
129,72,2.2938135
87,19,-2.8794668
158,71,-7.9478498
79,39,-3.1821914
83,8,-2.8735888
154,60,-1.4212608
8,50,-0.42816448
142,80,-2.5611305
146,49,-8.5619545
24,24,-3.1821868
34,64,-1.685974
38,33,-18.90668
59,26,-3.1821914
87,66,-2.0752187
151,38,-53.410892
151,66,-2.0752227
155,7,-0.7467683
99,20,-3.1821866
95,79,-3.8743002
20,51,-1.8036189
51,13,-5.241819
54,45,-4.811959
108,87,-3.1821854
112,28,-3.8278732
120,41,-3.2402952
67,53,-3.1821847
75,66,-2.0752227
138,79,-3.8743021
30,63,-1.7138803
34,32,-25.20721
131,8,-2.8735888
12,43,-3.1821892
134,68,-3.3326092
163,67,-3.1821847
125,8,-2.873587
29,20,-3.1821828
87,39,-3.1821873
84,7,-0.7467702
139,35,-14.501805
164,14,-15.187479
13,18,4.626577
108,27,-4.471125
104,86,-12.006964
147,48,-34.59207
42,64,-1.6859688
39,32,-25.207195
4,79,-3.8743002
29,58,-1.5599971
59,83,-1.3505545
60,20,-3.1821868
63,52,-29.678368
108,60,-1.4212583
63,85,-1.9399115
88,14,-15.187478
127,35,-14.501805
156,6,-3.2746506
39,70,-3.1821887
43,39,-3.1821914
140,15,-6.457616
21,50,-0.4281664
113,27,-4.471131
116,87,-3.1821918
5,59,-1.8580569
68,52,-29.67837
92,72,2.2938058
132,2,-124.97337
156,72,2.2938097
152,33,-18.906673
96,46,-5.0371103
93,14,-15.187475
135,67,-3.1821866
117,34,-42.035458
114,2,-124.9734
51,71,-7.9478574
48,39,-3.182187
1,20,-3.1821826
72,59,-1.8580563
69,27,-4.471129
152,5,-3.9930768
128,29,-2.0838366
9,64,-1.685974
139,74,-58.243816
165,13,-5.241817
31,58,-1.5599971
10,6,-3.2746506
64,51,-1.8036166
125,66,-2.0752213
122,34,-42.035458
126,3,-5.595378
60,40,-6.641172
81,0,-3.5880532
81,28,-3.8278754
89,13,-5.241817
141,9,-56.206448
36,25,-3.18219
10,44,-3.4851062
44,38,-53.410892
102,21,-3.1821868
144,74,-58.243816
40,27,-4.471131
117,86,-12.006961
2,14,-15.187475
60,78,-2.4012787
57,46,-5.0371103
69,0,-3.588051
153,27,-4.471129
161,12,-3.5667877
132,22,-3.1821895
89,60,-1.4212608
157,1,-2.3385499
153,60,-1.4212608
18,71,-7.9478574
118,33,-18.906681
22,45,-4.811955
114,22,-3.1821873
73,58,-1.5600008
69,47,-3.8814697
132,60,-1.4212608
77,32,-25.207195
90,35,-14.5018
10,63,-1.7138782
129,28,-3.8278713
132,88,-15.562331
98,20,-3.1821868
32,57,-3.1821868
27,12,-3.5667877
53,45,-4.811955
69,85,-1.9399134
85,59,-1.8580544
6,90,0.058077313
40,84,-3.1821895
98,67,-3.1821868
141,29,-2.0838342
162,39,-3.1821914
27,78,-2.4012787
106,52,-29.678368
106,80,-2.5611246
110,21,-3.1821887
166,8,-2.8735867
27,83,-1.3505526
61,77,0.16347998
65,46,-5.0371084
123,29,-2.0838342
82,65,-6.9276457
78,54,-46.746174
141,67,-3.182185
86,39,-3.1821914
142,4,-3.3118794
19,70,-3.1821847
158,0,-3.5880468
149,80,-2.5611286
107,27,-4.471127
41,64,-1.685974
123,1,-2.338548
62,52,-29.678368
78,26,-3.1821895
58,13,-5.241815
150,53,-3.1821847
137,28,-3.8278713
94,66,-2.075219
162,7,-0.7467702
16,6,-3.2746487
50,0,-3.588051
2,72,2.2938128
57,76,-3.1821868
115,59,-1.8580563
115,87,-3.1821914
119,28,-3.8278773
53,65,-6.927643
50,33,-18.906673
70,84,-3.1821914
74,53,-3.1821868
134,34,-42.035454
163,33,-18.906681
129,86,-12.00696
130,23,-3.9590507
7,89,-3.086322
11,58,-1.5599971
138,8,-2.8735867
95,46,-5.0371084
28,77,0.16348062
50,71,-7.9478555
124,28,-3.8278732
82,85,-1.9399154
79,53,-3.1821887
8,36,-4.231129
8,64,-1.6859759
12,5,-3.9930806
103,73,-2.8227272
146,35,-14.501803
38,19,-2.8794687
59,7,-0.7467702
107,47,-3.8814697
104,15,-6.457612
146,68,-3.3326092
66,83,-1.3505545
125,3,-5.59538
62,72,2.2938058
59,40,-6.641172
126,22,-3.1821895
83,60,-1.4212652
80,28,-3.8278732
151,52,-29.678368
155,21,-3.1821868
38,85,-1.9399114
139,30,-2.0021582
20,37,-6.0924478
17,5,-3.9930806
20,65,-6.9276457
120,27,-4.471131
4,74,-58.24382
78,84,-3.1821895
75,52,-29.678368
34,18,4.626572
30,77,0.16347872
92,1,-2.3385499
88,60,-1.4212608
131,22,-3.1821918
21,12,-3.5667877
134,54,-46.746185
100,14,-15.187469
163,53,-3.1821847
47,26,-3.1821895
29,6,-3.2746487
55,39,-3.1821895
116,54,-46.746174
113,22,-3.1821876
71,79,-3.874304
68,47,-3.8814714
135,29,-2.0838356
131,88,-15.562333
13,4,-3.3118749
164,0,-3.5880532
108,41,-3.2402952
164,28,-3.8278735
8,84,-3.1821895
29,44,-3.4851043
29,72,2.293809
48,6,-3.2746484
63,71,-7.9478555
88,0,-3.588051
84,59,-1.8580582
88,28,-3.8278732
127,21,-3.1821868
152,0,-3.588047
9,31,-4.773301
39,84,-3.1821914
43,25,-3.1821914
140,29,-2.0838366
143,61,-11.964684
109,21,-3.1821887
43,58,-1.5599989
5,73,-2.8227317
64,46,-5.037112
125,61,-11.964682
156,58,-1.5599989
80,86,-12.006968
152,47,-3.881468
96,60,-1.4212608
144,36,-4.231131
160,32,-25.207203
22,11,-4.475857
117,48,-34.592064
18,0,-3.588053
51,85,-1.9399134
109,68,-3.3326128
125,33,-18.90668
117,53,-3.1821826
117,81,-3.1821826
72,78,-2.4012825
76,47,-3.8814697
139,60,-1.4212627
97,7,-0.7467683
93,66,-2.0752184
136,28,-3.8278732
31,44,-3.4851062
31,72,2.293809
132,17,-4.5199003
89,55,-3.1821868
52,32,-25.207188
49,0,-3.588051
97,40,-6.64117
1,72,2.2938159
118,28,-3.8278751
52,65,-6.927646
73,53,-3.182185
89,27,-4.471129
32,19,-2.8794708
132,55,-3.1821868
161,54,-46.746174
10,30,-2.0021582
10,58,-1.559999
13,90,0.05807942
105,67,-3.1821847
148,29,-2.0838342
27,7,-0.7467702
61,1,-2.3385522
68,77,0.16347808
161,26,-3.1821895
156,78,-2.4012787
81,85,-1.9399154
85,54,-46.74616
153,46,-5.037112
11,5,-3.9930768
145,35,-14.501805
40,51,-1.8036166
37,19,-2.8794687
40,79,-3.874304
22,31,-4.7732973
18,90,0.058073297
48,64,-1.6859688
141,24,-3.182185
106,47,-3.881468
149,9,-56.206448
61,72,2.2938027
157,53,-3.182185
154,21,-3.1821868
101,66,-2.0752227
98,34,-42.03545
41,26,-3.1821895
19,37,-6.092445
19,65,-6.927643
23,6,-3.2746487
57,0,-3.588051
114,74,-58.243824
49,20,-3.1821868
122,87,-3.1821873
57,5,-3.9930787
70,8,-2.8735886
77,84,-3.1821918
78,21,-3.1821868
33,18,4.626572
133,54,-46.74619
94,61,-11.964684
14,89,-3.0863163
137,23,-3.9590507
162,53,-3.1821887
165,85,-1.9399114
49,58,-1.5599989
49,86,-12.006964
2,67,-3.1821847
28,6,-3.2746525
57,71,-7.9478536
115,54,-46.74619
7,51,-1.8036166
89,85,-1.9399115
86,53,-3.1821887
166,60,-1.4212608
110,73,-2.8227315
107,41,-3.2402952
150,3,-5.5953755
11,25,-3.1821854
7,84,-3.1821895
45,19,-2.879469
103,2,-124.97339
145,55,-3.1821887
111,15,-6.457614
58,27,-4.471129
66,12,-3.5667877
66,40,-6.641172
129,53,-3.182185
87,0,-3.588049
129,81,-3.182185
158,52,-29.678368
161,84,-3.1821895
82,80,-2.561129
42,25,-3.1821852
142,61,-11.964684
146,30,-2.00216
24,5,-3.9930787
38,14,-15.187479
119,42,-4.680985
154,79,-3.8743021
151,47,-3.8814697
99,1,-2.3385477
95,60,-1.4212583
99,29,-2.0838356
138,22,-3.1821895
20,32,-25.207195
17,0,-3.588051
50,85,-1.9399115
3,66,-2.0752208
54,26,-3.1821895
120,22,-3.1821895
154,51,-1.8036166
78,79,-3.8743021
75,47,-3.8814697
138,60,-1.4212608
30,44,-3.4851086
34,13,-5.241819
91,87,-3.1821895
12,24,-3.1821892
134,49,-8.5619545
107,61,-11.964684
124,80,-2.5611305
29,1,-2.3385458
91,59,-1.8580582
0,23,-3.9590485
87,48,-34.592068
50,25,-3.1821895
12,90,0.058073096
46,84,-3.1821895
104,67,-3.1821828
108,8,-2.8735824
42,45,-4.8119535
39,13,-5.241819
42,73,-2.822723
147,29,-2.0838342
63,33,-18.906675
60,1,-2.3385499
71,46,-5.0371103
130,48,-34.59207
87,86,-12.006962
127,16,-6.047925
155,78,-2.4012806
159,47,-3.8814697
43,20,-3.1821887
120,79,-3.874304
21,31,-4.773301
21,59,-1.8580525
25,0,-3.588053
113,8,-2.8735847
116,68,-3.3326144
124,53,-3.1821868
68,33,-18.90668
79,78,-2.4012806
131,74,-58.24382
156,53,-3.1821868
143,28,-3.827877
100,66,-2.0752208
35,12,-3.5667896
96,27,-4.471129
92,86,-12.006971
96,55,-3.182185
135,48,-34.59207
138,80,-2.5611286
117,15,-6.45761
51,52,-29.678368
48,20,-3.1821845
125,28,-3.8278735
1,1,-2.3385437
151,77,0.16348062
152,14,-15.187471
9,45,-4.811957
164,85,-1.9399154
31,39,-3.1821892
109,35,-14.501809
112,67,-3.1821868
68,1,-2.3385522
125,75,-3.1821873
81,9,-56.206448
144,22,-3.1821918
88,85,-1.9399134
160,46,-5.0371103
10,25,-3.1821892
44,19,-2.8794706
144,55,-3.1821892
25,90,0.058073297
148,24,-3.182185
117,67,-3.1821826
60,59,-1.8580582
68,72,2.2938066
153,8,-2.8735867
97,21,-3.1821868
160,84,-3.1821876
161,21,-3.1821868
164,53,-3.1821892
153,41,-3.2402952
18,52,-29.678368
52,46,-5.037112
5,27,-4.471133
97,54,-46.746178
30,6,-3.2746525
26,65,-6.927643
118,14,-15.187478
118,42,-4.680983
121,74,-58.24382
22,26,-3.1821873
56,20,-3.182183
73,39,-3.1821876
77,8,-2.8735888
132,41,-3.240297
132,69,-3.1821868
40,18,4.626572
140,54,-46.746185
98,1,-2.338548
32,38,-53.410892
26,84,-3.1821873
53,26,-3.1821873
6,7,-0.7467643
85,40,-6.641172
152,72,2.2938128
148,81,-3.182185
106,28,-3.827871
6,71,-7.9478517
40,65,-6.9276443
165,80,-2.5611265
14,84,-3.1821854
106,33,-18.90668
106,61,-11.964682
110,2,-124.97339
149,23,-3.9590507
61,58,-1.5600007
65,27,-4.471127
154,7,-0.7467702
128,73,-2.8227317
86,20,-3.1821887
89,80,-2.5611305
19,51,-1.8036143
141,76,-3.182185
149,61,-11.964684
41,45,-4.811957
122,73,-2.8227272
118,62,5.022011
78,7,-0.7467702
137,9,-56.206448
94,47,-3.8814697
161,79,-3.8743021
158,47,-3.8814662
102,60,-1.4212608
49,72,2.2938097
2,53,-3.1821847
57,85,-1.9399134
119,9,-56.206448
115,68,-3.3326128
74,34,-42.035454
71,2,-124.97341
130,4,-3.3118794
7,70,-3.1821868
11,39,-3.1821854
141,49,-8.561956
166,79,-3.874304
111,1,-2.3385477
50,52,-29.678371
66,26,-3.1821914
90,46,-5.0371084
87,14,-15.187475
129,67,-3.182185
154,46,-5.0371103
11,77,0.1634851
8,45,-4.811959
45,71,-7.9478536
90,79,-3.8743002
146,16,-6.047921
19,90,0.058077313
38,0,-3.5880508
111,67,-3.1821866
46,13,-5.241819
66,64,-1.6859759
67,1,-2.3385477
70,33,-18.906681
83,41,-3.2402987
155,2,-124.97338
99,15,-6.457612
162,78,-2.4012806
0,18,4.6265745
20,18,4.6265697
20,46,-5.037114
28,31,-4.773301
120,8,-2.8735867
123,68,-3.3326128
75,33,-18.906681
79,2,-124.973404
142,15,-6.457616
99,53,-3.1821866
96,21,-3.182185
138,74,-58.24382
33,90,0.058075204
30,58,-1.5600008
131,3,-5.59538
8,18,4.626572
99,86,-12.006966
4,27,-4.471125
120,74,-58.24382
58,52,-29.678368
55,20,-3.1821868
151,1,-2.3385499
71,60,-1.4212602
87,34,-42.035458
135,10,-78.55549
164,9,-56.206448
12,76,-3.1821892
16,45,-4.811955
108,22,-3.1821854
116,7,-0.7467723
29,53,-3.1821828
108,55,-3.1821828
71,32,-25.207209
67,21,-3.1821847
0,75,-3.1821847
84,40,-6.641172
87,72,2.2938128
88,9,-56.206448
127,2,-124.97337
151,72,2.2938058
43,6,-3.2746525
39,65,-6.927646
43,34,-42.035454
143,42,-4.680983
51,19,-2.8794727
109,2,-124.9734
64,27,-4.471131
160,8,-2.8735867
96,41,-3.2402952
160,13,-5.241817
21,83,-1.3505545
22,20,-3.1821847
25,52,-29.678368
117,29,-2.0838294
17,72,2.2938097
51,66,-2.0752227
125,14,-15.187477
59,51,-1.8036166
121,3,-5.595378
117,62,5.022011
80,39,-3.1821914
76,28,-3.8278732
39,5,-3.9930806
35,64,-1.6859759
96,79,-3.874304
97,16,-6.047923
17,44,-3.4851086
31,25,-3.1821892
31,53,-3.1821866
136,9,-56.206448
139,41,-3.240297
139,69,-3.1821887
52,41,-3.240297
1,53,-3.1821826
5,22,-3.1821918
60,26,-3.1821895
118,9,-56.206448
92,40,-6.641174
89,8,-2.8735867
32,0,-3.588051
10,11,-4.4758587
10,39,-3.1821892
13,71,-7.9478517
47,65,-6.927646
105,48,-34.592068
148,10,-78.55549
113,61,-11.96468
60,73,-2.8227315
68,58,-1.5600026
68,86,-12.006969
132,8,-2.8735886
89,46,-5.0371103
161,7,-0.7467702
127,88,-15.562331
85,35,-14.501805
145,16,-6.047923
29,83,-1.3505524
26,51,-1.8036143
40,32,-25.207203
40,60,-1.4212608
106,23,-3.9590504
148,76,-3.182185
22,40,-6.6411695
48,45,-4.8119535
122,2,-124.9734
61,53,-3.1821911
77,27,-4.4711313
157,34,-42.035458
9,70,-3.1821868
154,2,-124.97337
101,47,-3.8814697
98,15,-6.457612
140,68,-3.3326125
35,84,-3.1821895
22,78,-2.4012785
19,46,-5.0371084
56,72,2.2938058
6,21,-3.1821828
122,68,-3.3326092
57,14,-15.18747
77,65,-6.9276457
78,2,-124.973366
81,34,-42.035454
32,90,0.058075204
36,59,-1.8580531
94,42,-4.680983
14,70,-3.1821828
133,35,-14.501809
137,4,-3.3118794
49,67,-3.1821868
2,48,-34.592068
57,52,-29.678368
153,33,-18.90668
89,66,-2.075219
86,34,-42.03546
90,3,-5.5953755
128,87,-3.1821918
15,45,-4.811959
110,54,-46.746185
107,22,-3.1821895
149,75,-3.1821868
11,6,-3.2746487
7,65,-6.9276443
41,59,-1.8580544
45,0,-3.588051
65,79,-3.8743021
110,87,-3.1821914
69,53,-3.1821868
66,21,-3.1821887
129,34,-42.035446
86,72,2.2938058
87,9,-56.206448
90,41,-3.2402952
129,62,5.0220127
133,3,-5.595378
158,33,-18.906675
161,65,-6.9276443
162,2,-124.9734
45,66,-2.0752208
146,11,-4.475857
23,77,0.163487
27,46,-5.0371103
119,23,-3.9590547
82,33,-18.906677
37,58,-1.559999
98,73,-2.8227277
95,41,-3.2402952
99,10,-78.55549
138,3,-5.595378
141,35,-14.501805
119,61,-11.964685
20,13,-5.241821
50,66,-2.075219
54,7,-0.7467702
3,47,-3.8814697
120,3,-5.595378
154,32,-25.207188
78,60,-1.4212589
75,28,-3.8278732
12,0,-3.5880532
150,21,-3.1821847
142,10,-78.55549
99,48,-34.59207
19,76,-3.1821847
138,69,-3.1821868
30,25,-3.1821895
30,53,-3.1821868
33,85,-1.9399134
15,65,-6.9276443
115,22,-3.1821914
107,42,-4.680983
70,52,-29.678368
91,40,-6.641172
163,1,-2.3385477
0,4,-3.311877
87,29,-2.0838318
50,6,-3.2746506
12,71,-7.947857
46,65,-6.9276443
107,80,-2.5611286
28,45,-4.811959
147,10,-78.55549
42,54,-46.746185
116,2,-124.97337
63,14,-15.187476
71,27,-4.471129
163,39,-3.1821873
130,29,-2.0838342
0,70,-3.1821847
8,4,-3.3118794
21,7,-0.7467702
87,67,-3.1821847
103,41,-3.2402952
126,88,-15.562331
28,83,-1.3505545
155,59,-1.8580525
43,1,-2.3385499
143,37,-6.0924463
24,72,2.2938097
21,40,-6.641172
58,66,-2.075219
116,49,-8.56196
75,85,-1.9399134
124,34,-42.03545
124,62,5.022011
71,74,-58.243828
31,19,-2.8794706
79,59,-1.8580563
79,87,-3.1821914
151,20,-3.1821887
143,9,-56.206448
100,47,-3.8814697
34,84,-3.1821876
138,89,-3.086322
96,36,-4.2311273
59,13,-5.241819
55,72,2.2938058
51,61,-11.964684
4,42,-4.6809773
59,46,-5.0371103
151,58,-1.5599989
80,34,-42.035458
151,86,-12.006968
155,27,-4.471131
9,26,-3.1821895
17,39,-3.1821914
112,48,-34.592068
109,16,-6.047925
46,85,-1.9399134
67,73,-2.822729
127,54,-46.746174
30,83,-1.3505545
131,28,-3.8278754
88,66,-2.0752208
92,35,-14.501805
160,27,-4.471131
163,59,-1.8580557
44,0,-3.5880508
47,60,-1.4212627
29,12,-3.566784
25,71,-7.9478555
148,5,-3.9930787
68,53,-3.1821911
97,2,-124.97339
132,3,-5.595378
160,65,-6.9276443
161,2,-124.97337
164,34,-42.035458
105,15,-6.457612
52,27,-4.471131
100,67,-3.182185
5,8,-2.8735888
97,35,-14.501805
29,78,-2.4012766
26,46,-5.0371084
121,55,-3.1821887
118,23,-3.9590526
56,1,-2.3385499
76,80,-2.5611305
32,14,-15.187469
80,54,-46.74619
132,50,-0.4281683
39,90,0.058073297
140,35,-14.501807
97,73,-2.8227277
101,42,-4.680983
144,4,-3.3118815
35,79,-3.8743021
5,79,-3.874306
152,53,-3.1821828
14,32,-25.207193
11,0,-3.588049
93,34,-42.03546
148,62,5.0220137
40,46,-5.037112
14,65,-6.927641
48,59,-1.8580513
106,42,-4.680981
109,74,-58.24382
69,19,-2.879469
149,4,-3.3118794
65,8,-2.8735847
128,49,-8.561958
85,87,-3.1821876
165,33,-18.906675
89,61,-11.964684
23,1,-2.3385458
49,6,-3.2746506
149,42,-4.680983
44,86,-12.006969
122,54,-46.74618
77,79,-3.874306
81,48,-34.59207
161,60,-1.4212608
158,28,-3.827869
10,64,-1.6859733
102,41,-3.2402952
36,78,-2.4012809
2,34,-42.035458
61,7,-0.7467723
57,66,-2.0752208
118,81,-3.1821887
74,15,-6.457614
137,56,-3.1821868
153,52,-29.678364
15,31,-4.773301
11,20,-3.1821828
40,85,-1.9399134
141,30,-2.00216
3,9,-56.206448
19,5,-3.9930768
66,7,-0.7467702
69,67,-3.1821868
90,27,-4.471125
86,86,-12.006971
90,55,-3.1821847
129,48,-34.592068
154,27,-4.471131
45,52,-29.678368
42,20,-3.1821826
90,60,-1.4212583
145,88,-15.562331
19,71,-7.9478536
111,48,-34.592068
49,26,-3.1821895
45,85,-1.9399134
70,14,-15.18748
66,73,-2.8227315
154,74,-58.243816
7,19,-2.8794708
98,87,-3.1821895
162,59,-1.8580544
162,87,-3.1821914
24,38,-53.41089
166,28,-3.8278732
126,11,-4.4758587
20,27,-4.4711313
28,12,-3.5667877
119,80,-2.5611348
123,49,-8.561958
75,14,-15.18748
78,74,-58.243816
141,87,-3.1821876
99,34,-42.035454
138,55,-3.1821868
163,34,-42.03546
33,71,-7.9478536
30,39,-3.1821895
142,29,-2.083836
99,67,-3.1821866
4,8,-2.8735824
120,55,-3.1821868
58,33,-18.906672
55,1,-2.3385499
79,21,-3.1821887
150,73,-2.8227272
94,86,-12.006964
34,46,-5.037112
151,15,-6.457616
12,57,-3.1821892
16,26,-3.1821876
50,20,-3.1821868
108,3,-5.5953755
115,79,-3.874306
116,16,-6.047927
71,13,-5.241817
0,56,-3.1821847
87,53,-3.1821847
87,81,-3.1821847
126,74,-58.243824
130,43,-3.1821868
151,53,-3.1821887
42,78,-2.4012764
43,15,-6.457614
143,51,-1.8036166
21,26,-3.1821895
51,0,-3.588053
108,74,-58.243824
124,48,-34.592068
64,8,-2.8735867
79,73,-2.8227296
127,49,-8.561958
130,81,-3.1821868
159,80,-2.5611286
104,2,-124.97337
163,54,-46.746197
25,33,-18.90668
22,1,-2.3385458
104,35,-14.501803
51,47,-3.8814697
124,86,-12.006964
125,23,-3.9590528
29,7,-0.7467681
59,32,-25.207203
59,60,-1.4212627
80,20,-3.1821887
80,48,-34.59207
83,80,-2.561129
76,9,-56.206448
35,45,-4.811959
135,81,-3.1821866
96,88,-15.562331
17,25,-3.1821914
139,50,-0.4281664
31,34,-42.03546
39,19,-2.8794708
52,22,-3.1821914
1,34,-42.035454
5,3,-5.59538
60,7,-0.7467702
152,19,-2.8794687
92,21,-3.1821887
88,80,-2.5611305
131,42,-4.680983
156,21,-3.1821868
13,52,-29.678368
10,20,-3.1821866
47,46,-5.0371103
147,82,-3.0124686
116,74,-58.243816
113,42,-4.680983
68,39,-3.1821938
68,67,-3.1821911
72,8,-2.8735886
131,80,-2.561131
160,79,-3.874304
164,48,-34.592068
127,69,-3.1821868
85,16,-6.047923
148,57,-3.182185
26,32,-25.207209
30,1,-2.3385499
40,41,-3.2402952
48,26,-3.182187
69,14,-15.187472
84,79,-3.874306
9,51,-1.8036166
40,13,-5.241819
101,28,-3.8278751
97,87,-3.1821895
140,49,-8.561958
143,81,-3.1821887
22,59,-1.8580519
56,53,-3.182183
6,2,-124.97337
122,49,-8.5619545
77,46,-5.037112
77,74,-58.243813
81,15,-6.457616
152,67,-3.1821828
140,87,-3.18219
36,40,-6.6411705
33,8,-2.8735847
136,76,-3.1821868
14,51,-1.8036104
18,20,-3.1821887
109,88,-15.562335
6,40,-6.6411657
2,29,-2.0838318
73,7,-0.7467702
153,14,-15.187476
97,27,-4.471129
93,86,-12.0069685
128,68,-3.3326125
86,15,-6.457616
89,75,-3.1821868
15,26,-3.1821895
110,35,-14.501805
110,63,-1.7138822
149,56,-3.1821868
44,72,2.293809
41,40,-6.64117
118,48,-34.59207
65,60,-1.4212589
73,73,-2.8227296
69,34,-42.035458
66,2,-124.9734
129,15,-6.457612
90,22,-3.1821873
10,50,-0.42816415
86,81,-3.1821887
105,87,-3.1821873
129,43,-3.182185
132,75,-3.1821868
158,14,-15.187471
161,74,-58.24382
45,47,-3.8814697
23,58,-1.5599971
27,27,-4.471129
61,21,-3.1821911
119,4,-3.3118815
82,14,-15.187471
153,66,-2.0752227
162,21,-3.1821887
40,71,-7.9478555
37,39,-3.1821892
98,54,-46.74618
98,82,-3.0124686
137,75,-3.1821868
141,16,-6.047923
141,44,-3.4851067
106,67,-3.1821866
53,79,-3.8743002
3,28,-3.8278713
62,1,-2.3385499
119,75,-3.1821892
154,13,-5.241817
154,41,-3.240297
157,73,-2.8227277
78,41,-3.240297
75,9,-56.206448
11,72,2.2938128
141,82,-3.0124705
138,50,-0.4281664
19,57,-3.1821847
19,85,-1.9399114
33,66,-2.0752208
30,34,-42.035458
115,3,-5.595378
49,40,-6.641172
70,28,-3.8278751
70,61,-11.964684
33,38,-53.410892
133,74,-58.243824
91,21,-3.1821868
94,81,-3.1821868
162,73,-2.8227315
49,78,-2.4012806
46,46,-5.0371103
50,15,-6.457614
107,89,-3.086324
28,26,-3.1821914
146,82,-3.0124683
115,74,-58.24382
71,8,-2.8735843
163,20,-3.1821847
163,48,-34.592068
0,51,-1.8036143
7,76,-3.1821868
8,13,-5.241819
103,22,-3.1821873
126,69,-3.1821868
159,9,-56.20644
28,64,-1.6859778
124,10,-78.55548
24,53,-3.1821868
21,21,-3.1821868
58,47,-3.8814678
79,35,-14.501809
124,43,-3.1821868
87,20,-3.1821847
79,40,-6.641172
79,68,-3.3326128
83,9,-56.206448
142,81,-3.1821887
100,28,-3.8278732
103,88,-15.562325
143,18,4.62657
34,65,-6.927646
38,34,-42.03546
146,50,-0.42816415
58,85,-1.9399115
59,22,-3.1821914
51,42,-4.680983
59,27,-4.471131
151,39,-3.1821914
80,15,-6.457614
151,67,-3.1821887
155,8,-2.8735867
95,80,-2.5611284
35,40,-6.641172
20,52,-29.67837
17,20,-3.1821887
51,14,-15.18748
108,88,-15.562325
112,29,-2.0838342
67,54,-46.746197
30,64,-1.6859759
31,1,-2.3385477
88,47,-3.8814697
92,16,-6.047927
131,9,-56.20645
131,37,-6.0924478
163,68,-3.3326092
43,72,2.2938097
47,41,-3.240297
147,77,0.16348253
29,21,-3.1821828
68,34,-42.035458
84,8,-2.8735867
131,75,-3.1821892
160,74,-58.243824
13,19,-2.8794668
108,28,-3.827871
104,87,-3.1821854
164,15,-6.457616
39,33,-18.90668
100,76,-3.182185
29,59,-1.8580538
26,27,-4.471129
60,21,-3.1821868
63,53,-3.1821868
121,36,-4.231129
76,61,-11.964684
88,15,-6.457614
84,74,-58.243824
156,7,-0.7467683
31,86,-12.006966
39,71,-7.9478555
40,8,-2.8735867
43,40,-6.641172
21,51,-1.8036166
101,23,-3.9590526
140,16,-6.047925
143,76,-3.1821887
89,41,-3.2402952
156,73,-2.8227277
152,34,-42.035454
148,43,-3.182185
93,15,-6.457612
117,35,-14.5018015
114,3,-5.5953755
51,72,2.2938058
14,46,-5.0371065
48,40,-6.6411676
72,60,-1.4212627
69,28,-3.8278732
117,68,-3.3326094
64,80,-2.5611286
128,30,-2.002164
73,2,-124.973404
9,65,-6.927646
136,43,-3.1821868
165,14,-15.187475
31,59,-1.8580538
22,73,-2.8227272
48,78,-2.4012764
52,47,-3.8814697
44,67,-3.1821866
122,35,-14.501803
126,4,-3.3118794
77,60,-1.4212633
81,29,-2.0838366
141,10,-78.55549
10,45,-4.811957
144,75,-3.1821892
102,22,-3.1821895
105,82,-3.0124683
2,15,-6.457612
123,10,-78.5555
60,79,-3.874306
57,47,-3.8814697
61,16,-6.047927
153,28,-3.8278713
161,13,-5.241819
153,61,-11.964684
18,72,2.2938058
110,49,-8.56196
40,66,-2.0752208
141,11,-4.4758587
19,14,-15.187475
114,23,-3.9590485
69,48,-34.59207
129,29,-2.0838323
90,36,-4.2311277
132,89,-3.086322
154,8,-2.8735867
98,21,-3.1821868
45,33,-18.906677
94,10,-78.55549
19,52,-29.678368
53,46,-5.0371084
111,29,-2.0838337
49,35,-14.501805
69,86,-12.006968
66,54,-46.74619
78,8,-2.8735847
7,0,-3.5880492
33,33,-18.906677
98,68,-3.3326128
162,40,-6.641172
162,68,-3.3326147
166,9,-56.206448
106,81,-3.1821866
49,73,-2.8227277
27,84,-3.1821895
123,30,-2.002162
82,66,-2.0752213
78,55,-3.1821868
86,40,-6.641172
99,43,-3.1821866
138,36,-4.231129
142,5,-3.9930806
149,81,-3.1821868
107,28,-3.8278713
163,15,-6.457614
41,65,-6.9276443
3,80,-2.5611286
62,53,-3.182185
54,73,-2.8227296
150,54,-46.74618
158,67,-3.1821826
16,7,-0.7467645
12,66,-2.0752232
50,1,-2.3385499
24,20,-3.1821868
115,60,-1.4212627
115,88,-15.562335
119,29,-2.0838385
50,34,-42.03545
70,85,-1.9399134
71,22,-3.1821892
74,54,-46.74618
134,35,-14.5018
126,55,-3.1821868
87,62,5.02201
130,24,-3.1821868
151,34,-42.035458
28,78,-2.4012806
42,87,-3.1821852
116,35,-14.501807
50,72,2.2938097
54,41,-3.240297
124,29,-2.0838342
79,54,-46.74619
12,6,-3.2746527
8,65,-6.9276443
103,74,-58.243835
25,14,-15.187476
59,8,-2.8735867
104,16,-6.0479174
107,48,-34.592075
125,4,-3.3118815
62,73,-2.8227296
59,41,-3.240297
126,23,-3.9590507
80,1,-2.3385499
80,29,-2.083836
83,61,-11.964689
155,22,-3.1821895
38,86,-12.006966
139,31,-4.773301
17,6,-3.2746525
20,66,-2.0752232
120,28,-3.8278732
4,75,-3.182181
59,79,-3.874306
75,53,-3.1821887
152,28,-3.827871
30,78,-2.4012787
92,2,-124.973404
88,61,-11.964684
131,23,-3.9590528
156,2,-124.97338
112,81,-3.1821868
13,33,-18.906677
47,27,-4.471131
68,15,-6.4576178
116,55,-3.1821892
113,23,-3.9590507
68,20,-3.1821911
68,48,-34.59207
71,80,-2.5611265
131,61,-11.964685
92,68,-3.3326147
131,89,-3.0863261
135,30,-2.0021582
108,42,-4.6809793
160,60,-1.4212608
164,29,-2.0838366
8,85,-1.9399134
48,2,-124.97341
26,13,-5.241817
29,73,-2.8227272
48,7,-0.746766
84,60,-1.4212627
39,85,-1.9399153
101,9,-56.206448
101,37,-6.0924463
140,30,-2.00216
143,62,5.0220127
143,90,0.058073297
109,22,-3.1821914
56,34,-42.035458
5,74,-58.243816
64,47,-3.8814697
122,30,-2.0021582
80,87,-3.1821914
77,55,-3.1821892
152,48,-34.592064
144,37,-6.0924478
141,5,-3.9930787
22,12,-3.5667858
36,21,-3.1821873
32,80,-2.5611305
18,1,-2.3385499
51,86,-12.006968
109,69,-3.1821887
6,49,-8.561953
117,54,-46.746185
2,10,-78.55549
72,79,-3.874306
152,86,-12.006964
136,29,-2.0838342
93,67,-3.1821845
132,18,4.626572
89,56,-3.1821868
52,33,-18.90668
49,1,-2.338548
97,41,-3.2402952
1,73,-2.822723
110,44,-3.4851086
149,37,-6.0924463
118,29,-2.083836
52,66,-2.0752227
73,54,-46.74619
165,66,-2.0752206
32,20,-3.1821868
132,56,-3.1821868
129,24,-3.182185
10,31,-4.773299
10,59,-1.8580538
105,68,-3.3326092
161,55,-3.1821868
27,8,-2.8735847
61,2,-124.973404
118,76,-3.1821887
81,86,-12.006966
85,55,-3.182185
153,47,-3.8814697
145,36,-4.231129
102,74,-58.243816
40,52,-29.678368
37,20,-3.1821866
40,80,-2.5611305
98,63,-1.7138803
19,0,-3.588049
61,40,-6.6411743
141,25,-3.1821876
106,48,-34.592068
61,73,-2.8227317
153,85,-1.9399134
82,61,-11.964685
154,22,-3.1821895
157,54,-46.74618
98,35,-14.5018015
41,27,-4.471129
37,86,-12.006969
141,63,-1.7138822
19,38,-53.41089
19,66,-2.0752187
23,7,-0.7467681
